0.000000000000000000e+00 1.019751893133228377e-06
9.004502251125562351e-01 1.021095148380048258e-06
1.800900450225112470e+00 1.022441059442200239e-06
2.701350675337668594e+00 1.023789633333593368e-06
3.601800900450224940e+00 1.025140877086791745e-06
4.502251125562780842e+00 1.026494797754186184e-06
5.402701350675337189e+00 1.027851402410500581e-06
6.303151575787893535e+00 1.029210698153908725e-06
7.203601800900449881e+00 1.030572692106263004e-06
8.104052026013006227e+00 1.031937391413194980e-06
9.004502251125561685e+00 1.033304803244123022e-06
9.904952476238118919e+00 1.034674934792330015e-06
1.080540270135067438e+01 1.036047793274992797e-06
1.170585292646323161e+01 1.037423385933304767e-06
1.260630315157578707e+01 1.038801720032496846e-06
1.350675337668834430e+01 1.040182802861999478e-06
1.440720360180089976e+01 1.041566641735488998e-06
1.530765382691345522e+01 1.042953243990968743e-06
1.620810405202601245e+01 1.044342616990921511e-06
1.710855427713856969e+01 1.045734768122343869e-06
1.800900450225112337e+01 1.047129704796885492e-06
1.890945472736368060e+01 1.048527434450937460e-06
1.980990495247623784e+01 1.049927964545718875e-06
2.071035517758879507e+01 1.051331302567386333e-06
2.161080540270134875e+01 1.052737456027151454e-06
2.251125562781390599e+01 1.054146432461353092e-06
2.341170585292646322e+01 1.055558239431588620e-06
2.431215607803901690e+01 1.056972884524796098e-06
2.521260630315157414e+01 1.058390375353396784e-06
2.611305652826413137e+01 1.059810719555365225e-06
2.701350675337668861e+01 1.061233924794389559e-06
2.791395697848924229e+01 1.062659998759972949e-06
2.881440720360179952e+01 1.064088949167582445e-06
2.971485742871435676e+01 1.065520783758846980e-06
3.061530765382691044e+01 1.066955510301715979e-06
3.151575787893946767e+01 1.068393136590754123e-06
3.241620810405202491e+01 1.069833670447469788e-06
3.331665832916458214e+01 1.071277119720690280e-06
3.421710855427713938e+01 1.072723492286553788e-06
3.511755877938969661e+01 1.074172796046764286e-06
3.601800900450224674e+01 1.075625038921503982e-06
3.691845922961480397e+01 1.077080228837556436e-06
3.781890945472736121e+01 1.078538373737950240e-06
3.871935967983991844e+01 1.079999481628643031e-06
3.961980990495247568e+01 1.081463560579454068e-06
4.052026013006503291e+01 1.082930618677475945e-06
4.142071035517759015e+01 1.084400664016775086e-06
4.232116058029014027e+01 1.085873704710493100e-06
4.322161080540269751e+01 1.087349748898251327e-06
4.412206103051525474e+01 1.088828804748243646e-06
4.502251125562781198e+01 1.090310880457437645e-06
4.592296148074036921e+01 1.091795984251503894e-06
4.682341170585292645e+01 1.093284124384667504e-06
4.772386193096548368e+01 1.094775309139732051e-06
4.862431215607803381e+01 1.096269546828135063e-06
4.952476238119059104e+01 1.097766845790071046e-06
5.042521260630314828e+01 1.099267214394684823e-06
5.132566283141570551e+01 1.100770661040333689e-06
5.222611305652826275e+01 1.102277194154931729e-06
5.312656328164081998e+01 1.103786822196494464e-06
5.402701350675337721e+01 1.105299553653834682e-06
5.492746373186592734e+01 1.106815397047810549e-06
5.582791395697848458e+01 1.108334360932947247e-06
5.672836418209104181e+01 1.109856453900019157e-06
5.762881440720359905e+01 1.111381684578819657e-06
5.852926463231615628e+01 1.112910061637785250e-06
5.942971485742871351e+01 1.114441593766585226e-06
6.033016508254127075e+01 1.115976289606920762e-06
6.123061530765382088e+01 1.117514157629732254e-06
6.213106553276637811e+01 1.119055206212995266e-06
6.303151575787893535e+01 1.120599444107522373e-06
6.393196598299149258e+01 1.122146880471421306e-06
6.483241620810404982e+01 1.123697524389231388e-06
6.573286643321659994e+01 1.125251384777400154e-06
6.663331665832916428e+01 1.126808470534970735e-06
6.753376688344171441e+01 1.128368790588184062e-06
6.843421710855427875e+01 1.129932353883552263e-06
6.933466733366682888e+01 1.131499169395921772e-06
7.023511755877939322e+01 1.133069246135805466e-06
7.113556778389194335e+01 1.134642593150664646e-06
7.203601800900449348e+01 1.136219219523281038e-06
7.293646823411705782e+01 1.137799134366823466e-06
7.383691845922960795e+01 1.139382346815409147e-06
7.473736868434217229e+01 1.140968866021866468e-06
7.563781890945472242e+01 1.142558701187082772e-06
7.653826913456728676e+01 1.144151861579252334e-06
7.743871935967983688e+01 1.145748356502139731e-06
7.833916958479238701e+01 1.147348195275787817e-06
7.923961980990495135e+01 1.148951387243570124e-06
8.014007003501750148e+01 1.150557941779601974e-06
8.104052026013006582e+01 1.152167868291285388e-06
8.194097048524261595e+01 1.153781176219776228e-06
8.284142071035518029e+01 1.155397875039957936e-06
8.374187093546773042e+01 1.157017974260375257e-06
8.464232116058028055e+01 1.158641483423238684e-06
8.554277138569284489e+01 1.160268412104456854e-06
8.644322161080539502e+01 1.161898769913721045e-06
8.734367183591795936e+01 1.163532566494632441e-06
8.824412206103050949e+01 1.165169811524820714e-06
8.914457228614307382e+01 1.166810514716065152e-06
9.004502251125562395e+01 1.168454685814481218e-06
9.094547273636817408e+01 1.170102334600676828e-06
9.184592296148073842e+01 1.171753470889886814e-06
9.274637318659328855e+01 1.173408104532236992e-06
9.364682341170585289e+01 1.175066245412927328e-06
9.454727363681840302e+01 1.176727903452511886e-06
9.544772386193096736e+01 1.178393088607174959e-06
9.634817408704351749e+01 1.180061810869089362e-06
9.724862431215606762e+01 1.181734080266539045e-06
9.814907453726863196e+01 1.183409906863924171e-06
9.904952476238118209e+01 1.185089300762842354e-06
9.994997498749374643e+01 1.186772272106243146e-06
1.008504252126062966e+02 1.188458831082078324e-06
1.017508754377188609e+02 1.190148987923446520e-06
1.026513256628314110e+02 1.191842752908694869e-06
1.035517758879439612e+02 1.193540136352030065e-06
1.044522261130565255e+02 1.195241148553536649e-06
1.053526763381690756e+02 1.196945799678541724e-06
1.062531265632816400e+02 1.198654099726094109e-06
1.071535767883941901e+02 1.200366058933211656e-06
1.080540270135067544e+02 1.202081688062965210e-06
1.089544772386193046e+02 1.203800997969997498e-06
1.098549274637318547e+02 1.205523999316067445e-06
1.107553776888444190e+02 1.207250702657553126e-06
1.116558279139569692e+02 1.208981118549181960e-06
1.125562781390695335e+02 1.210715257600994101e-06
1.134567283641820836e+02 1.212453130496345061e-06
1.143571785892946480e+02 1.214194747967951410e-06
1.152576288144071981e+02 1.215940120783777301e-06
1.161580790395197482e+02 1.217689259751703312e-06
1.170585292646323126e+02 1.219442175725441283e-06
1.179589794897448627e+02 1.221198879608213397e-06
1.188594297148574270e+02 1.222959382353508587e-06
1.197598799399699772e+02 1.224723694953985551e-06
1.206603301650825415e+02 1.226491828389483570e-06
1.215607803901950916e+02 1.228263793509302074e-06
1.224612306153076418e+02 1.230039601018614029e-06
1.233616808404202061e+02 1.231819261883279070e-06
1.242621310655327562e+02 1.233602787566079510e-06
1.251625812906453206e+02 1.235390189594508018e-06
1.260630315157578707e+02 1.237181479319414466e-06
1.269634817408704350e+02 1.238976668011815876e-06
1.278639319659829852e+02 1.240775766956013282e-06
1.287643821910955353e+02 1.242578787475789412e-06
1.296648324162080996e+02 1.244385740937085089e-06
1.305652826413206640e+02 1.246196638763264892e-06
1.314657328664331999e+02 1.248011492445907501e-06
1.323661830915457642e+02 1.249830313524298610e-06
1.332666333166583286e+02 1.251653113570770059e-06
1.341670835417708929e+02 1.253479904193510071e-06
1.350675337668834288e+02 1.255310697043805390e-06
1.359679839919959932e+02 1.257145503820267126e-06
1.368684342171085575e+02 1.258984336266084250e-06
1.377688844422210934e+02 1.260827206166340195e-06
1.386693346673336578e+02 1.262674125348638177e-06
1.395697848924462221e+02 1.264525105684063212e-06
1.404702351175587864e+02 1.266380159087642693e-06
1.413706853426713224e+02 1.268239297518658520e-06
1.422711355677838867e+02 1.270102532980923443e-06
1.431715857928964510e+02 1.271969877523162651e-06
1.440720360180089870e+02 1.273841343239363601e-06
1.449724862431215513e+02 1.275716942268589240e-06
1.458729364682341156e+02 1.277596686792610129e-06
1.467733866933466800e+02 1.279480589027952073e-06
1.476738369184592159e+02 1.281368661217189047e-06
1.485742871435717802e+02 1.283260915648972982e-06
1.494747373686843446e+02 1.285157364696868533e-06
1.503751875937968805e+02 1.287058020801016932e-06
1.512756378189094448e+02 1.288962896431942273e-06
1.521760880440220092e+02 1.290872004091073070e-06
1.530765382691345735e+02 1.292785356321418470e-06
1.539769884942471094e+02 1.294702965712584812e-06
1.548774387193596738e+02 1.296624844902155438e-06
1.557778889444722381e+02 1.298551006575985250e-06
1.566783391695847740e+02 1.300481463468390448e-06
1.575787893946973384e+02 1.302416228361792138e-06
1.584792396198099027e+02 1.304355314084512563e-06
1.593796898449224670e+02 1.306298733504663766e-06
1.602801400700350030e+02 1.308246499526311371e-06
1.611805902951475673e+02 1.310198625106551406e-06
1.620810405202601316e+02 1.312155123270192984e-06
1.629814907453726676e+02 1.314116007091038028e-06
1.638819409704852319e+02 1.316081289692657573e-06
1.647823911955977962e+02 1.318050984256870149e-06
1.656828414207103606e+02 1.320025104010693020e-06
1.665832916458228965e+02 1.322003662222283841e-06
1.674837418709354608e+02 1.323986672205411509e-06
1.683841920960480252e+02 1.325974147320272491e-06
1.692846423211605611e+02 1.327966100971674997e-06
1.701850925462731254e+02 1.329962546615981897e-06
1.710855427713856898e+02 1.331963497774192935e-06
1.719859929964982541e+02 1.333968968025910673e-06
1.728864432216107900e+02 1.335978970997543660e-06
1.737868934467233544e+02 1.337993520363031058e-06
1.746873436718359187e+02 1.340012629848195977e-06
1.755877938969484546e+02 1.342036313233545762e-06
1.764882441220610190e+02 1.344064584356276495e-06
1.773886943471735833e+02 1.346097457111639263e-06
1.782891445722861476e+02 1.348134945450684083e-06
1.791895947973986836e+02 1.350177063362963700e-06
1.800900450225112479e+02 1.352223824825019801e-06
1.809904952476238122e+02 1.354275243753493382e-06
1.818909454727363482e+02 1.356331334141629618e-06
1.827913956978489125e+02 1.358392110263528845e-06
1.836918459229614768e+02 1.360457586526145340e-06
1.845922961480740412e+02 1.362527777306042899e-06
1.854927463731865771e+02 1.364602696996024841e-06
1.863931965982991414e+02 1.366682360025930793e-06
1.872936468234117058e+02 1.368766780859194130e-06
1.881940970485242417e+02 1.370855974006377988e-06
1.890945472736368060e+02 1.372949954035149922e-06
1.899949974987493704e+02 1.375048735572884419e-06
1.908954477238619347e+02 1.377152333306368124e-06
1.917958979489744706e+02 1.379260761980145801e-06
1.926963481740870350e+02 1.381374036392487397e-06
1.935967983991995993e+02 1.383492171389890374e-06
1.944972486243121352e+02 1.385615181873171357e-06
1.953976988494246996e+02 1.387743082817536792e-06
1.962981490745372639e+02 1.389875889267994573e-06
1.971985992996498283e+02 1.392013616322416127e-06
1.980990495247623642e+02 1.394156279134789028e-06
1.989994997498749285e+02 1.396303892917774822e-06
1.998999499749874929e+02 1.398456472941282837e-06
2.008004002001000288e+02 1.400614034534580984e-06
2.017008504252125931e+02 1.402776593088664068e-06
2.026013006503251574e+02 1.404944164056580103e-06
2.035017508754377218e+02 1.407116762949983102e-06
2.044022011005502577e+02 1.409294405334428440e-06
2.053026513256628220e+02 1.411477106827454754e-06
2.062031015507753864e+02 1.413664883063209091e-06
2.071035517758879223e+02 1.415857749629176299e-06
2.080040020010004866e+02 1.418055722186093694e-06
2.089044522261130510e+02 1.420258816688734010e-06
2.098049024512256153e+02 1.422467049256585279e-06
2.107053526763381512e+02 1.424680435973445374e-06
2.116058029014507156e+02 1.426898992900736525e-06
2.125062531265632799e+02 1.429122736137761333e-06
2.134067033516758158e+02 1.431351681846297430e-06
2.143071535767883802e+02 1.433585846250953449e-06
2.152076038019009445e+02 1.435825245630153413e-06
2.161080540270135089e+02 1.438069896321045292e-06
2.170085042521260448e+02 1.440319814749443194e-06
2.179089544772386091e+02 1.442575017423926299e-06
2.188094047023511735e+02 1.444835520903539376e-06
2.197098549274637094e+02 1.447101341813764645e-06
2.206103051525762737e+02 1.449372496862333766e-06
2.215107553776888381e+02 1.451649002820577235e-06
2.224112056028014024e+02 1.453930876516278385e-06
2.233116558279139383e+02 1.456218134839968329e-06
2.242121060530265027e+02 1.458510794747578650e-06
2.251125562781390670e+02 1.460808873254760145e-06
2.260130065032516029e+02 1.463112387425764453e-06
2.269134567283641672e+02 1.465421354385202782e-06
2.278139069534767316e+02 1.467735791363167141e-06
2.287143571785892959e+02 1.470055715686419926e-06
2.296148074037018318e+02 1.472381144722385776e-06
2.305152576288143962e+02 1.474712095877969745e-06
2.314157078539269605e+02 1.477048586654452874e-06
2.323161580790394964e+02 1.479390634662319928e-06
2.332166083041520608e+02 1.481738257583710636e-06
2.341170585292646251e+02 1.484091473164149049e-06
2.350175087543771895e+02 1.486450299224691264e-06
2.359179589794897254e+02 1.488814753656169198e-06
2.368184092046022897e+02 1.491184854356722759e-06
2.377188594297148541e+02 1.493560619078781433e-06
2.386193096548273900e+02 1.495942065390748753e-06
2.395197598799399543e+02 1.498329211190273558e-06
2.404202101050525187e+02 1.500722075064368804e-06
2.413206603301650830e+02 1.503120675738200002e-06
2.422211105552776189e+02 1.505525031721920553e-06
2.431215607803901833e+02 1.507935161430066326e-06
2.440220110055027476e+02 1.510351083313201741e-06
2.449224612306152835e+02 1.512772815902956293e-06
2.458229114557278479e+02 1.515200377819160382e-06
2.467233616808404122e+02 1.517633787767778977e-06
2.476238119059529765e+02 1.520073064538301273e-06
2.485242621310655124e+02 1.522518227002137042e-06
2.494247123561780768e+02 1.524969294111068899e-06
2.503251625812906411e+02 1.527426284893134231e-06
2.512256128064031770e+02 1.529889218440245181e-06
2.521260630315157414e+02 1.532358113893398395e-06
2.530265132566283057e+02 1.534832990472014331e-06
2.539269634817408701e+02 1.537313867540887597e-06
2.548274137068534060e+02 1.539800764586165940e-06
2.557278639319659703e+02 1.542293701143067842e-06
2.566283141570785347e+02 1.544792696757107473e-06
2.575287643821910706e+02 1.547297770948211194e-06
2.584292146073036633e+02 1.549808943276028671e-06
2.593296648324161993e+02 1.552326233537384514e-06
2.602301150575287352e+02 1.554849661763695881e-06
2.611305652826413279e+02 1.557379248056114462e-06
2.620310155077538639e+02 1.559915012518012018e-06
2.629314657328663998e+02 1.562456975278862055e-06
2.638319159579789925e+02 1.565005156534137190e-06
2.647323661830915285e+02 1.567559576570030449e-06
2.656328164082040644e+02 1.570120255766681184e-06
2.665332666333166571e+02 1.572687214591195739e-06
2.674337168584291931e+02 1.575260473596352759e-06
2.683341670835417858e+02 1.577840053420981601e-06
2.692346173086543217e+02 1.580425974783587352e-06
2.701350675337668577e+02 1.583018258460557519e-06
2.710355177588794504e+02 1.585616925263517240e-06
2.719359679839919863e+02 1.588221996094857795e-06
2.728364182091045222e+02 1.590833492049024387e-06
2.737368684342171150e+02 1.593451434361139993e-06
2.746373186593296509e+02 1.596075844312358534e-06
2.755377688844421868e+02 1.598706743231325800e-06
2.764382191095547796e+02 1.601344152522377386e-06
2.773386693346673155e+02 1.603988093678899788e-06
2.782391195597798514e+02 1.606638588287091447e-06
2.791395697848924442e+02 1.609295658027121270e-06
2.800400200100049801e+02 1.611959324674277639e-06
2.809404702351175729e+02 1.614629610100606564e-06
2.818409204602301088e+02 1.617306536275684821e-06
2.827413706853426447e+02 1.619990125261052821e-06
2.836418209104552375e+02 1.622680399183803702e-06
2.845422711355677734e+02 1.625377380186838142e-06
2.854427213606803093e+02 1.628081090460321049e-06
2.863431715857929021e+02 1.630791552445956678e-06
2.872436218109054380e+02 1.633508788861959168e-06
2.881440720360179739e+02 1.636232822441363617e-06
2.890445222611305667e+02 1.638963675711561830e-06
2.899449724862431026e+02 1.641701370932632386e-06
2.908454227113556385e+02 1.644445930595730386e-06
2.917458729364682313e+02 1.647197378008154278e-06
2.926463231615807672e+02 1.649955736820875964e-06
2.935467733866933600e+02 1.652721030454293332e-06
2.944472236118058959e+02 1.655493281996735803e-06
2.953476738369184318e+02 1.658272514281724746e-06
2.962481240620310246e+02 1.661058750417580193e-06
2.971485742871435605e+02 1.663852014253352067e-06
2.980490245122560964e+02 1.666652329890868215e-06
2.989494747373686891e+02 1.669459721262818616e-06
2.998499249624812251e+02 1.672274212223777328e-06
3.007503751875937610e+02 1.675095826689866153e-06
3.016508254127063537e+02 1.677924588685535633e-06
3.025512756378188897e+02 1.680760522331148601e-06
3.034517258629314256e+02 1.683603651791455169e-06
3.043521760880440183e+02 1.686454001256993792e-06
3.052526263131565543e+02 1.689311595100974897e-06
3.061530765382691470e+02 1.692176458010905779e-06
3.070535267633816829e+02 1.695048614819077925e-06
3.079539769884942189e+02 1.697928090369664783e-06
3.088544272136068116e+02 1.700814909545147296e-06
3.097548774387193475e+02 1.703709097298662713e-06
3.106553276638318835e+02 1.706610678679615063e-06
3.115557778889444762e+02 1.709519678893859173e-06
3.124562281140570121e+02 1.712436123314681811e-06
3.133566783391695481e+02 1.715360037426828906e-06
3.142571285642821408e+02 1.718291446802730603e-06
3.151575787893946767e+02 1.721230377088440727e-06
3.160580290145072127e+02 1.724176853974372854e-06
3.169584792396198054e+02 1.727130903273010923e-06
3.178589294647323413e+02 1.730092551118902401e-06
3.187593796898449341e+02 1.733061823903220961e-06
3.196598299149574700e+02 1.736038747932940968e-06
3.205602801400700059e+02 1.739023348977594168e-06
3.214607303651825987e+02 1.742015651998379872e-06
3.223611805902951346e+02 1.745015682421007507e-06
3.232616308154076705e+02 1.748023467745197493e-06
3.241620810405202633e+02 1.751039036253735269e-06
3.250625312656327992e+02 1.754062415517428284e-06
3.259629814907453351e+02 1.757093632528058616e-06
3.268634317158579279e+02 1.760132714115220804e-06
3.277638819409704638e+02 1.763179687233571048e-06
3.286643321660829997e+02 1.766234579179410996e-06
3.295647823911955925e+02 1.769297417500027472e-06
3.304652326163081284e+02 1.772368229814554755e-06
3.313656828414207212e+02 1.775447043805978372e-06
3.322661330665332571e+02 1.778533887263300400e-06
3.331665832916457930e+02 1.781628788097023227e-06
3.340670335167583858e+02 1.784731774339767253e-06
3.349674837418709217e+02 1.787842874157187448e-06
3.358679339669834576e+02 1.790962115860671012e-06
3.367683841920960504e+02 1.794089527893878658e-06
3.376688344172085863e+02 1.797225138819595061e-06
3.385692846423211222e+02 1.800368977322181861e-06
3.394697348674337150e+02 1.803521072212297337e-06
3.403701850925462509e+02 1.806681452429526862e-06
3.412706353176587868e+02 1.809850147043970037e-06
3.421710855427713796e+02 1.813027185257930091e-06
3.430715357678839155e+02 1.816212596407666610e-06
3.439719859929965082e+02 1.819406409964075491e-06
3.448724362181090441e+02 1.822608655529092862e-06
3.457728864432215801e+02 1.825819362830281060e-06
3.466733366683341728e+02 1.829038561743150490e-06
3.475737868934467087e+02 1.832266282352091791e-06
3.484742371185592447e+02 1.835502554962317511e-06
3.493746873436718374e+02 1.838747410058223244e-06
3.502751375687843733e+02 1.842000878222051499e-06
3.511755877938969093e+02 1.845262989814808675e-06
3.520760380190095020e+02 1.848533774294657009e-06
3.529764882441220379e+02 1.851813260248646763e-06
3.538769384692345739e+02 1.855101477655003371e-06
3.547773886943471666e+02 1.858398459135548658e-06
3.556778389194597025e+02 1.861704237821583120e-06
3.565782891445722953e+02 1.865018845839099213e-06
3.574787393696848312e+02 1.868342314673151419e-06
3.583791895947973671e+02 1.871674675758274425e-06
3.592796398199099599e+02 1.875015960678142968e-06
3.601800900450224958e+02 1.878366201202892542e-06
3.610805402701350317e+02 1.881725429291336497e-06
3.619809904952476245e+02 1.885093677063040214e-06
3.628814407203601604e+02 1.888470976721895438e-06
3.637818909454726963e+02 1.891857360460372525e-06
3.646823411705852891e+02 1.895252860578092554e-06
3.655827913956978250e+02 1.898657509859160817e-06
3.664832416208103609e+02 1.902071341508429706e-06
3.673836918459229537e+02 1.905494388770528489e-06
3.682841420710354896e+02 1.908926684876799243e-06
3.691845922961480824e+02 1.912368263147914257e-06
3.700850425212606183e+02 1.915819157050319552e-06
3.709854927463731542e+02 1.919279400210719998e-06
3.718859429714857470e+02 1.922749026416414945e-06
3.727863931965982829e+02 1.926228069610853421e-06
3.736868434217108188e+02 1.929716563887086141e-06
3.745872936468234116e+02 1.933214543490674222e-06
3.754877438719359475e+02 1.936722042842050425e-06
3.763881940970484834e+02 1.940239096541451006e-06
3.772886443221610762e+02 1.943765739349490713e-06
3.781890945472736121e+02 1.947302006184259575e-06
3.790895447723861480e+02 1.950847932130339992e-06
3.799899949974987408e+02 1.954403552441208502e-06
3.808904452226112767e+02 1.957968902518112468e-06
3.817908954477238694e+02 1.961544017840070853e-06
3.826913456728364054e+02 1.965128933846521196e-06
3.835917958979489413e+02 1.968723685935954191e-06
3.844922461230615340e+02 1.972328309908568448e-06
3.853926963481740700e+02 1.975942842312449897e-06
3.862931465732866059e+02 1.979567319954636836e-06
3.871935967983991986e+02 1.983201779528139566e-06
3.880940470235117346e+02 1.986846257713028690e-06
3.889944972486242705e+02 1.990500791312692642e-06
3.898949474737368632e+02 1.994165417303288320e-06
3.907953976988493991e+02 1.997840172846792592e-06
3.916958479239619351e+02 2.001525095297261023e-06
3.925962981490745278e+02 2.005220222195293362e-06
3.934967483741870637e+02 2.008925591261666395e-06
3.943971985992996565e+02 2.012641240399310495e-06
3.952976488244121924e+02 2.016367207698479491e-06
3.961980990495247283e+02 2.020103531440045197e-06
3.970985492746373211e+02 2.023850250086996174e-06
3.979989994997498570e+02 2.027607402234256949e-06
3.988994497248623929e+02 2.031375026482670692e-06
3.997998999499749857e+02 2.035153161395334669e-06
4.007003501750875216e+02 2.038941845915394582e-06
4.016008004002000575e+02 2.042741119710758603e-06
4.025012506253126503e+02 2.046551022717020186e-06
4.034017008504251862e+02 2.050371594709955879e-06
4.043021510755377221e+02 2.054202875242792370e-06
4.052026013006503149e+02 2.058044903919074339e-06
4.061030515257628508e+02 2.061897721022219579e-06
4.070035017508754436e+02 2.065761367463002952e-06
4.079039519759879795e+02 2.069635884149896662e-06
4.088044022011005154e+02 2.073521311782207867e-06
4.097048524262131082e+02 2.077417690977983620e-06
4.106053026513256441e+02 2.081325062677500094e-06
4.115057528764381800e+02 2.085243468456841804e-06
4.124062031015507728e+02 2.089172950131926407e-06
4.133066533266633087e+02 2.093113549369637810e-06
4.142071035517758446e+02 2.097065307940718861e-06
4.151075537768884374e+02 2.101028268139926380e-06
4.160080040020009733e+02 2.105002472615390437e-06
4.169084542271135092e+02 2.108987964069153054e-06
4.178089044522261020e+02 2.112984785264118537e-06
4.187093546773386379e+02 2.116992979096782686e-06
4.196098049024512306e+02 2.121012588669692653e-06
4.205102551275637666e+02 2.125043657364973216e-06
4.214107053526763025e+02 2.129086228815331565e-06
4.223111555777888952e+02 2.133140346842873578e-06
4.232116058029014312e+02 2.137206055456030357e-06
4.241120560280139671e+02 2.141283398862449223e-06
4.250125062531265598e+02 2.145372421480080534e-06
4.259129564782390958e+02 2.149473167954219134e-06
4.268134067033516317e+02 2.153585683158687665e-06
4.277138569284642244e+02 2.157710012182924395e-06
4.286143071535767604e+02 2.161846200330669465e-06
4.295147573786892963e+02 2.165994293126326961e-06
4.304152076038018890e+02 2.170154336319570648e-06
4.313156578289144250e+02 2.174326375885126714e-06
4.322161080540270177e+02 2.178510458008206913e-06
4.331165582791395536e+02 2.182706629042434752e-06
4.340170085042520896e+02 2.186914935485427641e-06
4.349174587293646823e+02 2.191135424097821548e-06
4.358179089544772182e+02 2.195368142015612121e-06
4.367183591795897541e+02 2.199613136663299942e-06
4.376188094047023469e+02 2.203870455720626684e-06
4.385192596298148828e+02 2.208140147079134611e-06
4.394197098549274187e+02 2.212422258798588850e-06
4.403201600800400115e+02 2.216716839200712168e-06
4.412206103051525474e+02 2.221023936944530677e-06
4.421210605302650833e+02 2.225343600921086791e-06
4.430215107553776761e+02 2.229675880145723735e-06
4.439219609804902120e+02 2.234020824111560023e-06
4.448224112056028048e+02 2.238378483138195556e-06
4.457228614307153407e+02 2.242748907097011737e-06
4.466233116558278766e+02 2.247132142675745912e-06
4.475237618809404694e+02 2.251528232936385908e-06
4.484242121060530053e+02 2.255937224924707356e-06
4.493246623311655412e+02 2.260359174748564434e-06
4.502251125562781340e+02 2.264794139606835922e-06
4.511255627813906699e+02 2.269242172825302635e-06
4.520260130065032058e+02 2.273703325598383913e-06
4.529264632316157986e+02 2.278177648857796910e-06
4.538269134567283345e+02 2.282665193896844862e-06
4.547273636818408704e+02 2.287166012423245262e-06
4.556278139069534632e+02 2.291680156408803115e-06
4.565282641320659991e+02 2.296207677939740633e-06
4.574287143571785919e+02 2.300748629480296436e-06
4.583291645822911278e+02 2.305303064316276888e-06
4.592296148074036637e+02 2.309871036231189672e-06
4.601300650325162565e+02 2.314452599039637046e-06
4.610305152576287924e+02 2.319047806644251287e-06
4.619309654827413283e+02 2.323656713264820488e-06
4.628314157078539210e+02 2.328279373482590500e-06
4.637318659329664570e+02 2.332915842134688627e-06
4.646323161580789929e+02 2.337566174252645131e-06
4.655327663831915856e+02 2.342230425013662995e-06
4.664332166083041216e+02 2.346908649683171736e-06
4.673336668334167143e+02 2.351600903760138862e-06
4.682341170585292502e+02 2.356307243461394846e-06
4.691345672836417862e+02 2.361027725658146737e-06
4.700350175087543789e+02 2.365762407344713160e-06
4.709354677338669148e+02 2.370511345546040184e-06
4.718359179589794508e+02 2.375274597378392077e-06
4.727363681840920435e+02 2.380052220197541411e-06
4.736368184092045794e+02 2.384844271848027993e-06
4.745372686343171154e+02 2.389650810616240862e-06
4.754377188594297081e+02 2.394471895105480502e-06
4.763381690845422440e+02 2.399307584154935911e-06
4.772386193096547800e+02 2.404157936811063356e-06
4.781390695347673727e+02 2.409023012390736486e-06
4.790395197598799086e+02 2.413902870534400621e-06
4.799399699849925014e+02 2.418797571230095451e-06
4.808404202101050373e+02 2.423707174802326715e-06
4.817408704352175732e+02 2.428631741884621065e-06
4.826413206603301660e+02 2.433571333410918517e-06
4.835417708854427019e+02 2.438526010620282377e-06
4.844422211105552378e+02 2.443495835125325951e-06
4.853426713356678306e+02 2.448480869045598213e-06
4.862431215607803665e+02 2.453481175041640455e-06
4.871435717858929024e+02 2.458496816278837889e-06
4.880440220110054952e+02 2.463527856381101341e-06
4.889444722361180311e+02 2.468574358993816042e-06
4.898449224612305670e+02 2.473636386147451052e-06
4.907453726863431598e+02 2.478713995647384031e-06
4.916458229114556957e+02 2.483807243579281130e-06
4.925462731365682885e+02 2.488916194797042849e-06
4.934467233616808244e+02 2.494040922384684004e-06
4.943471735867933603e+02 2.499181496906505185e-06
4.952476238119059531e+02 2.504337983973013990e-06
4.961480740370184890e+02 2.509510447353473794e-06
4.970485242621310249e+02 2.514698952247947556e-06
4.979489744872436177e+02 2.519903565737017681e-06
4.988494247123561536e+02 2.525124355078198628e-06
4.997498749374686895e+02 2.530361387162431442e-06
5.006503251625812823e+02 2.535614728948297831e-06
5.015507753876938182e+02 2.540884447814515045e-06
5.024512256128063541e+02 2.546170611773664311e-06
5.033516758379189469e+02 2.551473289490258047e-06
5.042521260630314828e+02 2.556792549961604525e-06
5.051525762881440755e+02 2.562128462408513945e-06
5.060530265132566115e+02 2.567481096366877939e-06
5.069534767383691474e+02 2.572850521696870044e-06
5.078539269634817401e+02 2.578236808491886272e-06
5.087543771885942760e+02 2.583640027105446455e-06
5.096548274137068120e+02 2.589060248494471706e-06
5.105552776388194047e+02 2.594497544318702800e-06
5.114557278639319406e+02 2.599951986571062190e-06
5.123561780890445334e+02 2.605423647434248792e-06
5.132566283141570693e+02 2.610912599431290042e-06
5.141570785392696052e+02 2.616418915543860116e-06
5.150575287643821412e+02 2.621942669165655430e-06
5.159579789894946771e+02 2.627483934069614882e-06
5.168584292146073267e+02 2.633042784451557300e-06
5.177588794397198626e+02 2.638619294956723640e-06
5.186593296648323985e+02 2.644213540669152655e-06
5.195597798899449344e+02 2.649825597085014177e-06
5.204602301150574704e+02 2.655455540042560339e-06
5.213606803401700063e+02 2.661103445321998227e-06
5.222611305652826559e+02 2.666769387703474888e-06
5.231615807903951918e+02 2.672453441428750522e-06
5.240620310155077277e+02 2.678155683618052735e-06
5.249624812406202636e+02 2.683876194680487721e-06
5.258629314657327996e+02 2.689615054819054838e-06
5.267633816908454492e+02 2.695372343076889208e-06
5.276638319159579851e+02 2.701148138374596707e-06
5.285642821410705210e+02 2.706942520206109745e-06
5.294647323661830569e+02 2.712755568807110872e-06
5.303651825912955928e+02 2.718587365146487907e-06
5.312656328164081287e+02 2.724437991091652327e-06
5.321660830415207784e+02 2.730307529352038783e-06
5.330665332666333143e+02 2.736196062619657605e-06
5.339669834917458502e+02 2.742103670679535089e-06
5.348674337168583861e+02 2.748030425334521188e-06
5.357678839419709220e+02 2.753976393989715263e-06
5.366683341670835716e+02 2.759941659289431223e-06
5.375687843921961075e+02 2.765926320266800380e-06
5.384692346173086435e+02 2.771930472544795589e-06
5.393696848424211794e+02 2.777954203509545285e-06
5.402701350675337153e+02 2.783997597387759838e-06
5.411705852926462512e+02 2.790060738427078526e-06
5.420710355177589008e+02 2.796143711449383230e-06
5.429714857428714367e+02 2.802246601180226159e-06
5.438719359679839727e+02 2.808369491944555292e-06
5.447723861930965086e+02 2.814512469714551625e-06
5.456728364182090445e+02 2.820675623820503168e-06
5.465732866433215804e+02 2.826859044661913972e-06
5.474737368684342300e+02 2.833062821937321314e-06
5.483741870935467659e+02 2.839287045029084130e-06
5.492746373186593019e+02 2.845531803558539845e-06
5.501750875437718378e+02 2.851797187514019422e-06
5.510755377688843737e+02 2.858083287248394363e-06
5.519759879939970233e+02 2.864390193852067235e-06
5.528764382191095592e+02 2.870717999460744485e-06
5.537768884442220951e+02 2.877066796827006750e-06
5.546773386693346310e+02 2.883436679061730451e-06
5.555777888944471670e+02 2.889827739775837063e-06
5.564782391195597029e+02 2.896240073026192270e-06
5.573786893446723525e+02 2.902673773199637420e-06
5.582791395697848884e+02 2.909128934903835773e-06
5.591795897948974243e+02 2.915605652735648376e-06
5.600800400200099602e+02 2.922104022079940771e-06
5.609804902451224962e+02 2.928624140186115702e-06
5.618809404702351458e+02 2.935166105182084605e-06
5.627813906953476817e+02 2.941730015097293877e-06
5.636818409204602176e+02 2.948315968251945409e-06
5.645822911455727535e+02 2.954924063600962267e-06
5.654827413706852894e+02 2.961554400583596720e-06
5.663831915957978254e+02 2.968207079067928409e-06
5.672836418209104750e+02 2.974882199479830616e-06
5.681840920460230109e+02 2.981579862958185663e-06
5.690845422711355468e+02 2.988300171438235500e-06
5.699849924962480827e+02 2.995043227569317013e-06
5.708854427213606186e+02 3.001809134687171671e-06
5.717858929464731546e+02 3.008597996888171872e-06
5.726863431715858042e+02 3.015409918944931050e-06
5.735867933966983401e+02 3.022245005523753227e-06
5.744872436218108760e+02 3.029103359244310078e-06
5.753876938469234119e+02 3.035985079502879232e-06
5.762881440720359478e+02 3.042890267143260874e-06
5.771885942971485974e+02 3.049819030313873780e-06
5.780890445222611334e+02 3.056771482219146267e-06
5.789894947473736693e+02 3.063747735677337980e-06
5.798899449724862052e+02 3.070747900115995865e-06
5.807903951975987411e+02 3.077772084119442604e-06
5.816908454227112770e+02 3.084820398007711149e-06
5.825912956478239266e+02 3.091892952948323101e-06
5.834917458729364625e+02 3.098989860463143170e-06
5.843921960980489985e+02 3.106111232674568444e-06
5.852926463231615344e+02 3.113257182024576040e-06
5.861930965482740703e+02 3.120427820843365642e-06
5.870935467733867199e+02 3.127623261455956904e-06
5.879939969984992558e+02 3.134843617882609783e-06
5.888944472236117917e+02 3.142089006761755034e-06
5.897948974487243277e+02 3.149359545485953359e-06
5.906953476738368636e+02 3.156655350840865506e-06
5.915957978989493995e+02 3.163976538557234099e-06
5.924962481240620491e+02 3.171323222921876129e-06
5.933966983491745850e+02 3.178695519040422635e-06
5.942971485742871209e+02 3.186093547239102015e-06
5.951975987993996569e+02 3.193517431553697202e-06
5.960980490245121928e+02 3.200967295141927130e-06
5.969984992496247287e+02 3.208443259757330006e-06
5.978989494747373783e+02 3.215945447114007878e-06
5.987993996998499142e+02 3.223473979601002361e-06
5.996998499249624501e+02 3.231028980316001047e-06
6.006003001500749860e+02 3.238610573198034107e-06
6.015007503751875220e+02 3.246218883231974304e-06
6.024012006003001716e+02 3.253854036193577534e-06
6.033016508254127075e+02 3.261516158312243434e-06
6.042021010505252434e+02 3.269205376413459219e-06
6.051025512756377793e+02 3.276921818362835107e-06
6.060030015007503152e+02 3.284665613045279587e-06
6.069034517258628512e+02 3.292436890415343672e-06
6.078039019509755008e+02 3.300235781571746246e-06
6.087043521760880367e+02 3.308062418323369201e-06
6.096048024012005726e+02 3.315916933076239107e-06
6.105052526263131085e+02 3.323799459261372021e-06
6.114057028514256444e+02 3.331710131156500579e-06
6.123061530765382940e+02 3.339649081236315653e-06
6.132066033016508300e+02 3.347616436636948710e-06
6.141070535267633659e+02 3.355612322467696145e-06
6.150075037518759018e+02 3.363636873505350975e-06
6.159079539769884377e+02 3.371690233740736542e-06
6.168084042021009736e+02 3.379772547844367192e-06
6.177088544272136232e+02 3.387883960343651899e-06
6.186093046523261592e+02 3.396024613830130825e-06
6.195097548774386951e+02 3.404194648778510964e-06
6.204102051025512310e+02 3.412394205595815872e-06
6.213106553276637669e+02 3.420623425798357005e-06
6.222111055527763028e+02 3.428882452028841667e-06
6.231115557778889524e+02 3.437171427845879819e-06
6.240120060030014884e+02 3.445490497758855150e-06
6.249124562281140243e+02 3.453839807526602452e-06
6.258129064532265602e+02 3.462219504025533904e-06
6.267133566783390961e+02 3.470629734755060771e-06
6.276138069034517457e+02 3.479070647754314817e-06
6.285142571285642816e+02 3.487542391415630807e-06
6.294147073536768175e+02 3.496045114946126517e-06
6.303151575787893535e+02 3.504578970360200365e-06
6.312156078039018894e+02 3.513144112092196371e-06
6.321160580290144253e+02 3.521740695075846310e-06
6.330165082541270749e+02 3.530368874898273853e-06
6.339169584792396108e+02 3.539028808260328182e-06
6.348174087043521467e+02 3.547720652185257424e-06
6.357178589294646827e+02 3.556444561725392368e-06
6.366183091545772186e+02 3.565200685612517078e-06
6.375187593796898682e+02 3.573989166725372634e-06
6.384192096048024041e+02 3.582810159392207098e-06
6.393196598299149400e+02 3.591663838591727226e-06
6.402201100550274759e+02 3.600550381365536423e-06
6.411205602801400119e+02 3.609469954817758621e-06
6.420210105052525478e+02 3.618422717933521027e-06
6.429214607303651974e+02 3.627408827447915398e-06
6.438219109554777333e+02 3.636428447407505847e-06
6.447223611805902692e+02 3.645481749789743287e-06
6.456228114057028051e+02 3.654568906518507185e-06
6.465232616308153411e+02 3.663690087378497417e-06
6.474237118559278770e+02 3.672845461833977061e-06
6.483241620810405266e+02 3.682035200260900402e-06
6.492246123061530625e+02 3.691259474389914973e-06
6.501250625312655984e+02 3.700518457327041446e-06
6.510255127563781343e+02 3.709812322893541042e-06
6.519259629814906702e+02 3.719141244597746283e-06
6.528264132066033198e+02 3.728505396387129687e-06
6.537268634317158558e+02 3.737904955992673176e-06
6.546273136568283917e+02 3.747340104713561198e-06
6.555277638819409276e+02 3.756811024154504677e-06
6.564282141070534635e+02 3.766317895807263963e-06
6.573286643321659994e+02 3.775860901771827085e-06
6.582291145572786490e+02 3.785440225344363273e-06
6.591295647823911850e+02 3.795056051925356620e-06
6.600300150075037209e+02 3.804708569176149214e-06
6.609304652326162568e+02 3.814397965204629594e-06
6.618309154577287927e+02 3.824124424740819278e-06
6.627313656828414423e+02 3.833888125873461072e-06
6.636318159079539782e+02 3.843689247948111716e-06
6.645322661330665142e+02 3.853527987398593820e-06
6.654327163581790501e+02 3.863404551119454757e-06
6.663331665832915860e+02 3.873319140734908881e-06
6.672336168084041219e+02 3.883271952133308220e-06
6.681340670335167715e+02 3.893263180283196477e-06
6.690345172586293074e+02 3.903293019681399625e-06
6.699349674837418434e+02 3.913361662218115786e-06
6.708354177088543793e+02 3.923469302835504434e-06
6.717358679339669152e+02 3.933616147560935857e-06
6.726363181590794511e+02 3.943802406834731365e-06
6.735367683841921007e+02 3.954028288166944986e-06
6.744372186093046366e+02 3.964293997218652692e-06
6.753376688344171725e+02 3.974599740141215148e-06
6.762381190595297085e+02 3.984945724698847933e-06
6.771385692846422444e+02 3.995332160487249221e-06
6.780390195097548940e+02 4.005759258247830888e-06
6.789394697348674299e+02 4.016227228834231594e-06
6.798399199599799658e+02 4.026736283239685264e-06
6.807403701850925017e+02 4.037286635517478883e-06
6.816408204102050377e+02 4.047878504594809174e-06
6.825412706353175736e+02 4.058512111346686110e-06
6.834417208604302232e+02 4.069187676421235114e-06
6.843421710855427591e+02 4.079905420606959530e-06
6.852426213106552950e+02 4.090665566001900204e-06
6.861430715357678309e+02 4.101468337043025305e-06
6.870435217608803669e+02 4.112313960046554017e-06
6.879439719859930165e+02 4.123202661730185586e-06
6.888444222111055524e+02 4.134134668186227731e-06
6.897448724362180883e+02 4.145110203534428854e-06
6.906453226613306242e+02 4.156129492856546554e-06
6.915457728864431601e+02 4.167192771076124361e-06
6.924462231115556961e+02 4.178300280890026264e-06
6.933466733366683457e+02 4.189452263352931974e-06
6.942471235617808816e+02 4.200648956181665051e-06
6.951475737868934175e+02 4.211890596454813119e-06
6.960480240120059534e+02 4.223177423773454177e-06
6.969484742371184893e+02 4.234509681065376265e-06
6.978489244622311389e+02 4.245887612738546487e-06
6.987493746873436749e+02 4.257311464476841393e-06
6.996498249124562108e+02 4.268781483887905211e-06
7.005502751375687467e+02 4.280297920180837714e-06
7.014507253626812826e+02 4.291861024104763160e-06
7.023511755877938185e+02 4.303471048227113645e-06
7.032516258129064681e+02 4.315128246859642473e-06
7.041520760380190040e+02 4.326832875772046550e-06
7.050525262631315400e+02 4.338585191824578547e-06
7.059529764882440759e+02 4.350385452960610801e-06
7.068534267133566118e+02 4.362233919518010028e-06
7.077538769384691477e+02 4.374130855413006474e-06
7.086543271635817973e+02 4.386076526804374676e-06
7.095547773886943332e+02 4.398071200962605517e-06
7.104552276138068692e+02 4.410115146496396056e-06
7.113556778389194051e+02 4.422208633421799606e-06
7.122561280640319410e+02 4.434351933203125565e-06
7.131565782891445906e+02 4.446545319374417656e-06
7.140570285142571265e+02 4.458789068044260151e-06
7.149574787393696624e+02 4.471083457676299777e-06
7.158579289644821984e+02 4.483428768263955256e-06
7.167583791895947343e+02 4.495825280570943851e-06
7.176588294147072702e+02 4.508273277125903868e-06
7.185592796398199198e+02 4.520773043383821680e-06
7.194597298649324557e+02 4.533324866736838686e-06
7.203601800900449916e+02 4.545929034692553659e-06
7.212606303151575275e+02 4.558585836934200831e-06
7.221610805402700635e+02 4.571295569409730256e-06
7.230615307653827131e+02 4.584058530808079592e-06
7.239619809904952490e+02 4.596875017943947376e-06
7.248624312156077849e+02 4.609745327902086579e-06
7.257628814407203208e+02 4.622669763135666218e-06
7.266633316658328567e+02 4.635648630554047363e-06
7.275637818909453927e+02 4.648682237613463508e-06
7.284642321160580423e+02 4.661770891607095999e-06
7.293646823411705782e+02 4.674914900564938118e-06
7.302651325662831141e+02 4.688114574950518971e-06
7.311655827913956500e+02 4.701370229624183556e-06
7.320660330165081859e+02 4.714682183175016700e-06
7.329664832416207219e+02 4.728050756468901536e-06
7.338669334667333715e+02 4.741476271889397561e-06
7.347673836918459074e+02 4.754959053031612767e-06
7.356678339169584433e+02 4.768499425604757055e-06
7.365682841420709792e+02 4.782097718221183073e-06
7.374687343671835151e+02 4.795754261701609134e-06
7.383691845922961647e+02 4.809469388584663423e-06
7.392696348174087007e+02 4.823243434121175315e-06
7.401700850425212366e+02 4.837076736989633616e-06
7.410705352676337725e+02 4.850969638387535352e-06
7.419709854927463084e+02 4.864922480448033014e-06
7.428714357178588443e+02 4.878935605524578811e-06
7.437718859429714939e+02 4.893009359213773496e-06
7.446723361680840299e+02 4.907144093474366996e-06
7.455727863931965658e+02 4.921340163220227617e-06
7.464732366183091017e+02 4.935597923860399975e-06
7.473736868434216376e+02 4.949917733375187829e-06
7.482741370685342872e+02 4.964299953241801852e-06
7.491745872936468231e+02 4.978744947208358211e-06
7.500750375187593590e+02 4.993253081114594731e-06
7.509754877438718950e+02 5.007824723538445019e-06
7.518759379689844309e+02 5.022460245800919075e-06
7.527763881940969668e+02 5.037160021734792987e-06
7.536768384192096164e+02 5.051924427564694481e-06
7.545772886443221523e+02 5.066753842146997047e-06
7.554777388694346882e+02 5.081648647620489480e-06
7.563781890945472242e+02 5.096609229180088480e-06
7.572786393196597601e+02 5.111635974711671740e-06
7.581790895447722960e+02 5.126729275102694248e-06
7.590795397698849456e+02 5.141889523185057281e-06
7.599799899949974815e+02 5.157117113460258925e-06
7.608804402201100174e+02 5.172412444974302669e-06
7.617808904452225534e+02 5.187775921966120608e-06
7.626813406703350893e+02 5.203207951543278616e-06
7.635817908954477389e+02 5.218708943152939892e-06
7.644822411205602748e+02 5.234279308687107959e-06
7.653826913456728107e+02 5.249919462316060176e-06
7.662831415707853466e+02 5.265629820283034575e-06
7.671835917958978825e+02 5.281410801490823044e-06
7.680840420210104185e+02 5.297262829430542433e-06
7.689844922461230681e+02 5.313186333104548944e-06
7.698849424712356040e+02 5.329181745041410491e-06
7.707853926963481399e+02 5.345249499716673907e-06
7.716858429214606758e+02 5.361390033617186939e-06
7.725862931465732117e+02 5.377603785322436271e-06
7.734867433716858613e+02 5.393891195190982710e-06
7.743871935967983973e+02 5.410252707959835894e-06
7.752876438219109332e+02 5.426688776585342128e-06
7.761880940470234691e+02 5.443199858744506330e-06
7.770885442721360050e+02 5.459786412567549407e-06
7.779889944972485409e+02 5.476448896163669753e-06
7.788894447223611905e+02 5.493187768284884153e-06
7.797898949474737265e+02 5.510003493697184816e-06
7.806903451725862624e+02 5.526896547577027477e-06
7.815907953976987983e+02 5.543867409700925927e-06
7.824912456228113342e+02 5.560916560468948274e-06
7.833916958479238701e+02 5.578044482720678499e-06
7.842921460730365197e+02 5.595251662082565191e-06
7.851925962981490557e+02 5.612538585862497802e-06
7.860930465232615916e+02 5.629905744400291425e-06
7.869934967483741275e+02 5.647353635276524043e-06
7.878939469734866634e+02 5.664882763104710224e-06
7.887943971985993130e+02 5.682493635911010307e-06
7.896948474237118489e+02 5.700186763677223614e-06
7.905952976488243849e+02 5.717962656894932015e-06
7.914957478739369208e+02 5.735821824913551892e-06
7.923961980990494567e+02 5.753764781621804251e-06
7.932966483241619926e+02 5.771792055384632612e-06
7.941970985492746422e+02 5.789904183482659561e-06
7.950975487743871781e+02 5.808101702679844693e-06
7.959979989994997140e+02 5.826385150264341564e-06
7.968984492246122500e+02 5.844755067903919772e-06
7.977988994497247859e+02 5.863212002263765378e-06
7.986993496748374355e+02 5.881756503239893741e-06
7.995997998999499714e+02 5.900389123377858762e-06
8.005002501250625073e+02 5.919110419282217401e-06
8.014007003501750432e+02 5.937920953862234249e-06
8.023011505752875792e+02 5.956821296787947783e-06
8.032016008004001151e+02 5.975812022800550547e-06
8.041020510255127647e+02 5.994893710199501915e-06
8.050025012506253006e+02 6.014066940688704361e-06
8.059029514757378365e+02 6.033332299277751278e-06
8.068034017008503724e+02 6.052690375522266970e-06
8.077038519259629084e+02 6.072141765482988827e-06
8.086043021510754443e+02 6.091687071342180828e-06
8.095047523761880939e+02 6.111326899751969274e-06
8.104052026013006298e+02 6.131061861370912423e-06
8.113056528264131657e+02 6.150892571233690565e-06
8.122061030515257016e+02 6.170819649149424957e-06
8.131065532766382375e+02 6.190843720329855244e-06
8.140070035017508872e+02 6.210965415663922979e-06
8.149074537268634231e+02 6.231185371276426798e-06
8.158079039519759590e+02 6.251504228360173523e-06
8.167083541770884949e+02 6.271922633343433192e-06
8.176088044022010308e+02 6.292441237965499475e-06
8.185092546273135667e+02 6.313060699194371628e-06
8.194097048524262163e+02 6.333781679452531968e-06
8.203101550775387523e+02 6.354604847385258972e-06
8.212106053026512882e+02 6.375530877301759167e-06
8.221110555277638241e+02 6.396560447429496604e-06
8.230115057528763600e+02 6.417694240416606218e-06
8.239119559779890096e+02 6.438932944341717184e-06
8.248124062031015455e+02 6.460277252297383812e-06
8.257128564282140815e+02 6.481727864469322732e-06
8.266133066533266174e+02 6.503285480106084005e-06
8.275137568784391533e+02 6.524950790885748917e-06
8.284142071035516892e+02 6.546724510023509938e-06
8.293146573286643388e+02 6.568607386014494846e-06
8.302151075537768747e+02 6.590600171212735646e-06
8.311155577788894107e+02 6.612703607970680569e-06
8.320160080040019466e+02 6.634918436013729724e-06
8.329164582291144825e+02 6.657245400076944389e-06
8.338169084542270184e+02 6.679685254437765953e-06
8.347173586793396680e+02 6.702238762504589143e-06
8.356178089044522039e+02 6.724906694148748001e-06
8.365182591295647399e+02 6.747689824257017044e-06
8.374187093546772758e+02 6.770588931576662360e-06
8.383191595797898117e+02 6.793604798858621516e-06
8.392196098049024613e+02 6.816738218389176733e-06
8.401200600300149972e+02 6.839989995127560589e-06
8.410205102551275331e+02 6.863360941327233274e-06
8.419209604802400690e+02 6.886851873064531511e-06
8.428214107053526050e+02 6.910463612307262771e-06
8.437218609304651409e+02 6.934196990211219438e-06
8.446223111555777905e+02 6.958052845450933523e-06
8.455227613806903264e+02 6.982032022559127013e-06
8.464232116058028623e+02 7.006135373208829222e-06
8.473236618309153982e+02 7.030363756530566068e-06
8.482241120560279342e+02 7.054718037827696538e-06
8.491245622811405838e+02 7.079199087462176426e-06
8.500250125062531197e+02 7.103807783788871887e-06
8.509254627313656556e+02 7.128545018661014404e-06
8.518259129564781915e+02 7.153411694143057353e-06
8.527263631815907274e+02 7.178408713146201604e-06
8.536268134067032634e+02 7.203536975460132564e-06
8.545272636318159130e+02 7.228797390619890256e-06
8.554277138569284489e+02 7.254190893035387170e-06
8.563281640820409848e+02 7.279718432172247429e-06
8.572286143071535207e+02 7.305380959566600281e-06
8.581290645322660566e+02 7.331179428699323658e-06
8.590295147573785925e+02 7.357114800393495662e-06
8.599299649824912422e+02 7.383188044750938044e-06
8.608304152076037781e+02 7.409400140525566824e-06
8.617308654327163140e+02 7.435752075017675809e-06
8.626313156578288499e+02 7.462244843837461933e-06
8.635317658829413858e+02 7.488879451265138771e-06
8.644322161080540354e+02 7.515656911317613604e-06
8.653326663331665713e+02 7.542578247601039306e-06
8.662331165582791073e+02 7.569644492814629226e-06
8.671335667833916432e+02 7.596856689068479192e-06
8.680340170085041791e+02 7.624215886962842700e-06
8.689344672336167150e+02 7.651723145616806364e-06
8.698349174587293646e+02 7.679379535827808364e-06
8.707353676838419005e+02 7.707186140599166327e-06
8.716358179089544365e+02 7.735144051762510582e-06
8.725362681340669724e+02 7.763254368128801020e-06
8.734367183591795083e+02 7.791518195164550445e-06
8.743371685842921579e+02 7.819936646297840957e-06
8.752376188094046938e+02 7.848510850647785896e-06
8.761380690345172297e+02 7.877241957073786091e-06
8.770385192596297657e+02 7.906131125681107379e-06
8.779389694847423016e+02 7.935179523997089285e-06
8.788394197098548375e+02 7.964388329840816410e-06
8.797398699349674871e+02 7.993758733260314966e-06
8.806403201600800230e+02 8.023291933515290983e-06
8.815407703851925589e+02 8.052989124580674709e-06
8.824412206103050949e+02 8.082851469295810343e-06
8.833416708354176308e+02 8.112880116163287777e-06
8.842421210605301667e+02 8.143076298291435458e-06
8.851425712856428163e+02 8.173441342099205137e-06
8.860430215107553522e+02 8.203976567531425030e-06
8.869434717358678881e+02 8.234683262839239150e-06
8.878439219609804240e+02 8.265562709353427295e-06
8.887443721860929600e+02 8.296616196889915041e-06
8.896448224112056096e+02 8.327845026049095491e-06
8.905452726363181455e+02 8.359250505810875736e-06
8.914457228614306814e+02 8.390833961528069182e-06
8.923461730865432173e+02 8.422596744812206859e-06
8.932466233116557532e+02 8.454540224150997513e-06
8.941470735367682892e+02 8.486665776279545372e-06
8.950475237618809388e+02 8.518974787458870150e-06
8.959479739869934747e+02 8.551468655373113461e-06
8.968484242121060106e+02 8.584148790728496470e-06
8.977488744372185465e+02 8.617016619329487427e-06
8.986493246623310824e+02 8.650073582164023354e-06
8.995497748874437320e+02 8.683321134101362897e-06
9.004502251125562680e+02 8.716760743858201630e-06
9.013506753376688039e+02 8.750393894623235180e-06
9.022511255627813398e+02 8.784222084442010341e-06
9.031515757878938757e+02 8.818246826028026567e-06
9.040520260130064116e+02 8.852469645862167150e-06
9.049524762381190612e+02 8.886892084422682220e-06
9.058529264632315972e+02 8.921515698901154147e-06
9.067533766883441331e+02 8.956342058453641209e-06
9.076538269134566690e+02 8.991372727676287904e-06
9.085542771385692049e+02 9.026609269254222284e-06
9.094547273636817408e+02 9.062053294523124376e-06
9.103551775887943904e+02 9.097706476341306352e-06
9.112556278139069263e+02 9.133570495224354791e-06
9.121560780390194623e+02 9.169647021273952104e-06
9.130565282641319982e+02 9.205937735274382356e-06
9.139569784892445341e+02 9.242444344790995514e-06
9.148574287143571837e+02 9.279168580442354465e-06
9.157578789394697196e+02 9.316112190463338890e-06
9.166583291645822555e+02 9.353276935576059232e-06
9.175587793896947915e+02 9.390664564454210758e-06
9.184592296148073274e+02 9.428276763511538120e-06
9.193596798399198633e+02 9.466115176826904779e-06
9.202601300650325129e+02 9.504181597200978516e-06
9.211605802901450488e+02 9.542478010179583024e-06
9.220610305152575847e+02 9.581006395133382121e-06
9.229614807403701207e+02 9.619768656539348661e-06
9.238619309654826566e+02 9.658766675439642380e-06
9.247623811905953062e+02 9.698002352054722777e-06
9.256628314157078421e+02 9.737477614407935144e-06
9.265632816408203780e+02 9.777194412102162993e-06
9.274637318659329139e+02 9.817154714332478694e-06
9.283641820910454499e+02 9.857360510229366314e-06
9.292646323161579858e+02 9.897813809716222188e-06
9.301650825412706354e+02 9.938516646952791193e-06
9.310655327663831713e+02 9.979471080754337935e-06
9.319659829914957072e+02 1.002067918801319078e-05
9.328664332166082431e+02 1.006214305716610358e-05
9.337668834417207790e+02 1.010386479307303332e-05
9.346673336668334287e+02 1.014584653759869735e-05
9.355677838919459646e+02 1.018809047056556503e-05
9.364682341170585005e+02 1.023059879075999945e-05
9.373686843421710364e+02 1.027337371241352668e-05
9.382691345672835723e+02 1.031641746919981991e-05
9.391695847923961082e+02 1.035973231508192726e-05
9.400700350175087578e+02 1.040332052444069547e-05
9.409704852426212938e+02 1.044718439655242668e-05
9.418709354677338297e+02 1.049132626140468450e-05
9.427713856928463656e+02 1.053574847868690018e-05
9.436718359179589015e+02 1.058045343188508073e-05
9.445722861430714374e+02 1.062544352540374352e-05
9.454727363681840870e+02 1.067072118662592913e-05
9.463731865932966230e+02 1.071628887060585373e-05
9.472736368184091589e+02 1.076214906186642983e-05
9.481740870435216948e+02 1.080830427190549628e-05
9.490745372686342307e+02 1.085475703852156312e-05
9.499749874937468803e+02 1.090150992706483683e-05
9.508754377188594162e+02 1.094856553128744157e-05
9.517758879439719522e+02 1.099592647257403204e-05
9.526763381690844881e+02 1.104359539562283174e-05
9.535767883941970240e+02 1.109157496006631213e-05
9.544772386193095599e+02 1.113986784171180454e-05
9.553776888444222095e+02 1.118847676534738092e-05
9.562781390695347454e+02 1.123740452273124806e-05
9.571785892946472813e+02 1.128665393776660967e-05
9.580790395197598173e+02 1.133622784447978041e-05
9.589794897448723532e+02 1.138612909517715727e-05
9.598799399699850028e+02 1.143636057066008791e-05
9.607803901950975387e+02 1.148692517262550114e-05
9.616808404202100746e+02 1.153782581842669808e-05
9.625812906453226105e+02 1.158906547866445251e-05
9.634817408704351465e+02 1.164064720317992950e-05
9.643821910955476824e+02 1.169257407855617439e-05
9.652826413206603320e+02 1.174484920264668525e-05
9.661830915457728679e+02 1.179747569504461126e-05
9.670835417708854038e+02 1.185045670718965666e-05
9.679839919959979397e+02 1.190379542473369971e-05
9.688844422211104757e+02 1.195749506816605379e-05
9.697848924462230116e+02 1.201155889710381129e-05
9.706853426713356612e+02 1.206599021562837981e-05
9.715857928964481971e+02 1.212079237105893276e-05
9.724862431215607330e+02 1.217596874654338339e-05
9.733866933466732689e+02 1.223152275418590496e-05
9.742871435717858049e+02 1.228745782694533683e-05
9.751875937968984545e+02 1.234377741856932082e-05
9.760880440220109904e+02 1.240048503873735260e-05
9.769884942471235263e+02 1.245758428659853288e-05
9.778889444722360622e+02 1.251507881698538822e-05
9.787893946973485981e+02 1.257297230660935875e-05
9.796898449224611340e+02 1.263126845734123645e-05
9.805902951475737837e+02 1.268997100683958892e-05
9.814907453726863196e+02 1.274908373335238922e-05
9.823911955977988555e+02 1.280861045773042678e-05
9.832916458229113914e+02 1.286855504577845399e-05
9.841920960480239273e+02 1.292892141624190220e-05
9.850925462731365769e+02 1.298971354311277144e-05
9.859929964982491128e+02 1.305093544432971953e-05
9.868934467233616488e+02 1.311259117985686437e-05
9.877938969484741847e+02 1.317468485943799615e-05
9.886943471735867206e+02 1.323722064363662710e-05
9.895947973986992565e+02 1.330020274111659561e-05
9.904952476238119061e+02 1.336363540837688387e-05
9.913956978489244420e+02 1.342752294952454199e-05
9.922961480740369780e+02 1.349186971860106898e-05
9.931965982991495139e+02 1.355668012808385379e-05
9.940970485242620498e+02 1.362195865048992546e-05
9.949974987493745857e+02 1.368770980980374930e-05
9.958979489744872353e+02 1.375393817967968067e-05
9.967983991995997712e+02 1.382064838900480814e-05
9.976988494247123072e+02 1.388784512656740264e-05
9.985992996498248431e+02 1.395553314189570038e-05
9.994997498749373790e+02 1.402371723852373333e-05
1.000400200100050029e+03 1.409240225018242238e-05
1.001300650325162565e+03 1.416159301912516971e-05
1.002201100550275100e+03 1.423129446730346137e-05
1.003101550775387636e+03 1.430151168894083786e-05
1.004002001000500172e+03 1.437224987474082654e-05
1.004902451225612708e+03 1.444351422899909084e-05
1.005802901450725358e+03 1.451530998257964811e-05
1.006703351675837894e+03 1.458764242165042848e-05
1.007603801900950430e+03 1.466051689619928309e-05
1.008504252126062966e+03 1.473393880980937825e-05
1.009404702351175501e+03 1.480791361407795474e-05
1.010305152576288151e+03 1.488244684745291213e-05
1.011205602801400687e+03 1.495754417866782312e-05
1.012106053026513223e+03 1.503321136292418562e-05
1.013006503251625759e+03 1.510945419952900459e-05
1.013906953476738295e+03 1.518627854049250334e-05
1.014807403701850831e+03 1.526369030651374270e-05
1.015707853926963480e+03 1.534169549517604253e-05
1.016608304152076016e+03 1.542030017781863838e-05
1.017508754377188552e+03 1.549951049543635756e-05
1.018409204602301088e+03 1.557933267558279182e-05
1.019309654827413624e+03 1.565977304968000180e-05
1.020210105052526160e+03 1.574083803704926592e-05
1.021110555277638809e+03 1.582253413123269430e-05
1.022011005502751345e+03 1.590486789572986465e-05
1.022911455727863881e+03 1.598784596126455191e-05
1.023811905952976417e+03 1.607147504724967143e-05
1.024712356178089067e+03 1.615576199074558375e-05
1.025612806403201603e+03 1.624071373160627753e-05
1.026513256628314139e+03 1.632633728403854424e-05
1.027413706853426675e+03 1.641263973224147969e-05
1.028314157078539210e+03 1.649962826056272717e-05
1.029214607303651746e+03 1.658731017713141161e-05
1.030115057528764282e+03 1.667569289392051879e-05
1.031015507753876818e+03 1.676478390275231204e-05
1.031915957978989354e+03 1.685459077886608247e-05
1.032816408204101890e+03 1.694512121021698808e-05
1.033716858429214653e+03 1.703638301321403099e-05
1.034617308654327189e+03 1.712838411028137539e-05
1.035517758879439725e+03 1.722113250828377461e-05
1.036418209104552261e+03 1.731463628344601685e-05
1.037318659329664797e+03 1.740890357834916344e-05
1.038219109554777333e+03 1.750394265093537229e-05
1.039119559779889869e+03 1.759976195532934567e-05
1.040020010005002405e+03 1.769637014690561333e-05
1.040920460230114941e+03 1.779377599508113396e-05
1.041820910455227477e+03 1.789198834923808905e-05
1.042721360680340013e+03 1.799101615140722213e-05
1.043621810905452776e+03 1.809086844845559592e-05
1.044522261130565312e+03 1.819155439934926969e-05
1.045422711355677848e+03 1.829308327126534007e-05
1.046323161580790384e+03 1.839546440963545879e-05
1.047223611805902920e+03 1.849870729396211561e-05
1.048124062031015455e+03 1.860282167638962697e-05
1.049024512256127991e+03 1.870781749136972891e-05
1.049924962481240527e+03 1.881370471762430736e-05
1.050825412706353063e+03 1.892049347155801776e-05
1.051725862931465599e+03 1.902819410021944631e-05
1.052626313156578135e+03 1.913681710348802162e-05
1.053526763381690898e+03 1.924637306038186042e-05
1.054427213606803434e+03 1.935687260951038835e-05
1.055327663831915970e+03 1.946832650504949248e-05
1.056228114057028506e+03 1.958074581164728547e-05
1.057128564282141042e+03 1.969414194175181420e-05
1.058029014507253578e+03 1.980852638052222941e-05
1.058929464732366114e+03 1.992391041582492468e-05
1.059829914957478650e+03 2.004030501190228562e-05
1.060730365182591186e+03 2.015772116166866828e-05
1.061630815407703722e+03 2.027617089207774473e-05
1.062531265632816257e+03 2.039566732263402117e-05
1.063431715857929021e+03 2.051622345840611116e-05
1.064332166083041557e+03 2.063785190595997942e-05
1.065232616308154093e+03 2.076056539029378823e-05
1.066133066533266629e+03 2.088437689923966422e-05
1.067033516758379164e+03 2.100929951595371399e-05
1.067933966983491700e+03 2.113534642028182749e-05
1.068834417208604236e+03 2.126253105923596500e-05
1.069734867433716772e+03 2.139086719833220067e-05
1.070635317658829308e+03 2.152036880366508460e-05
1.071535767883941844e+03 2.165105000092932389e-05
1.072436218109054380e+03 2.178292514689133511e-05
1.073336668334167143e+03 2.191600886681182060e-05
1.074237118559279679e+03 2.205031600154269269e-05
1.075137568784392215e+03 2.218586154620347055e-05
1.076038019009504751e+03 2.232266066534999708e-05
1.076938469234617287e+03 2.246072882652679108e-05
1.077838919459729823e+03 2.260008185518010861e-05
1.078739369684842359e+03 2.274073581490855837e-05
1.079639819909954895e+03 2.288270697134805968e-05
1.080540270135067431e+03 2.302601183194265163e-05
1.081440720360179967e+03 2.317066713212754931e-05
1.082341170585292502e+03 2.331668979299007322e-05
1.083241620810405038e+03 2.346409697294531331e-05
1.084142071035517802e+03 2.361290624144073304e-05
1.085042521260630338e+03 2.376313556286131350e-05
1.085942971485742873e+03 2.391480314666972979e-05
1.086843421710855409e+03 2.406792742015485153e-05
1.087743871935967945e+03 2.422252705146046124e-05
1.088644322161080481e+03 2.437862099491713293e-05
1.089544772386193017e+03 2.453622855425485427e-05
1.090445222611305553e+03 2.469536940159694073e-05
1.091345672836418089e+03 2.485606354078354974e-05
1.092246123061530625e+03 2.501833126347344593e-05
1.093146573286643161e+03 2.518219314473997198e-05
1.094047023511755924e+03 2.534767010781487586e-05
1.094947473736868460e+03 2.551478348571700850e-05
1.095847923961980996e+03 2.568355497843383248e-05
1.096748374187093532e+03 2.585400660198666786e-05
1.097648824412206068e+03 2.602616069354383028e-05
1.098549274637318604e+03 2.620003996231091932e-05
1.099449724862431140e+03 2.637566749383884497e-05
1.100350175087543676e+03 2.655306670206266059e-05
1.101250625312656211e+03 2.673226145847066868e-05
1.102151075537768747e+03 2.691327618327325028e-05
1.103051525762881283e+03 2.709613569103359380e-05
1.103951975987994047e+03 2.728086513286122003e-05
1.104852426213106583e+03 2.746749004691373649e-05
1.105752876438219118e+03 2.765603643922568487e-05
1.106653326663331654e+03 2.784653087440316745e-05
1.107553776888444190e+03 2.803900041013772753e-05
1.108454227113556726e+03 2.823347252047972666e-05
1.109354677338669262e+03 2.842997506302837431e-05
1.110255127563781798e+03 2.862853619857041890e-05
1.111155577788894334e+03 2.882918445517443297e-05
1.112056028014006870e+03 2.903194917290946340e-05
1.112956478239119406e+03 2.923686064211609235e-05
1.113856928464232169e+03 2.944394968635885598e-05
1.114757378689344705e+03 2.965324747222319694e-05
1.115657828914457241e+03 2.986478544635221902e-05
1.116558279139569777e+03 3.007859499356992214e-05
1.117458729364682313e+03 3.029470746484226479e-05
1.118359179589794849e+03 3.051315557246777111e-05
1.119259629814907385e+03 3.073397392845278345e-05
1.120160080040019920e+03 3.095719776615421038e-05
1.121060530265132456e+03 3.118286270005896012e-05
1.121960980490244992e+03 3.141100494982570687e-05
1.122861430715357528e+03 3.164166119430889625e-05
1.123761880940470292e+03 3.187486851274009978e-05
1.124662331165582827e+03 3.211066422810256312e-05
1.125562781390695363e+03 3.234908551087983531e-05
1.126463231615807899e+03 3.259017006255244436e-05
1.127363681840920435e+03 3.283395820191858320e-05
1.128264132066032971e+03 3.308049230682619355e-05
1.129164582291145507e+03 3.332981440901350664e-05
1.130065032516258043e+03 3.358196533547048426e-05
1.130965482741370579e+03 3.383698604748908834e-05
1.131865932966483115e+03 3.409492048951795088e-05
1.132766383191595651e+03 3.435581523789959293e-05
1.133666833416708187e+03 3.461971708220730183e-05
1.134567283641820950e+03 3.488667266024577296e-05
1.135467733866933486e+03 3.515672897016757517e-05
1.136368184092046022e+03 3.542993347863509081e-05
1.137268634317158558e+03 3.570633431637999273e-05
1.138169084542271094e+03 3.598598123563356675e-05
1.139069534767383630e+03 3.626892579226056058e-05
1.139969984992496165e+03 3.655522042473717005e-05
1.140870435217608701e+03 3.684491840609392693e-05
1.141770885442721237e+03 3.713807407917474958e-05
1.142671335667833773e+03 3.743474268127820563e-05
1.143571785892946309e+03 3.773498028634447753e-05
1.144472236118059072e+03 3.803884408783398215e-05
1.145372686343171608e+03 3.834639263734664869e-05
1.146273136568284144e+03 3.865768572913673510e-05
1.147173586793396680e+03 3.897278449728912346e-05
1.148074037018509216e+03 3.929175144242742752e-05
1.148974487243621752e+03 3.961465024406667069e-05
1.149874937468734288e+03 3.994154577621105898e-05
1.150775387693846824e+03 4.027250421950665231e-05
1.151675837918959360e+03 4.060759313447370538e-05
1.152576288144071896e+03 4.094688150408267710e-05
1.153476738369184432e+03 4.129043976777777551e-05
1.154377188594297195e+03 4.163833985528296426e-05
1.155277638819409731e+03 4.199065522209126752e-05
1.156178089044522267e+03 4.234746088679233289e-05
1.157078539269634803e+03 4.270883347007582530e-05
1.157978989494747339e+03 4.307485123527006471e-05
1.158879439719859874e+03 4.344559413032732156e-05
1.159779889944972410e+03 4.382114383122531743e-05
1.160680340170084946e+03 4.420158378677588459e-05
1.161580790395197482e+03 4.458699926486274631e-05
1.162481240620310018e+03 4.497747740013305644e-05
1.163381690845422554e+03 4.537310724318513119e-05
1.164282141070535317e+03 4.577397981129598521e-05
1.165182591295647853e+03 4.618018814073690531e-05
1.166083041520760389e+03 4.659182734073223425e-05
1.166983491745872925e+03 4.700899464911709256e-05
1.167883941970985461e+03 4.743178948975539745e-05
1.168784392196097997e+03 4.786031353178006641e-05
1.169684842421210533e+03 4.829467075072539758e-05
1.170585292646323069e+03 4.873496749161634016e-05
1.171485742871435605e+03 4.918131253410063886e-05
1.172386193096548141e+03 4.963381715968992101e-05
1.173286643321660677e+03 5.009259522120568497e-05
1.174187093546773440e+03 5.055776321452194722e-05
1.175087543771885976e+03 5.102944035270262776e-05
1.175987993996998512e+03 5.150774864266110826e-05
1.176888444222111048e+03 5.199281296447499456e-05
1.177788894447223583e+03 5.248476115353672516e-05
1.178689344672336119e+03 5.298372408576579041e-05
1.179589794897448655e+03 5.348983576620201590e-05
1.180490245122561191e+03 5.400323342143534944e-05
1.181390695347673727e+03 5.452405759650719592e-05
1.182291145572786263e+03 5.505245225703848759e-05
1.183191595797898799e+03 5.558856489676643241e-05
1.184092046023011562e+03 5.613254664679878089e-05
1.184992496248124098e+03 5.668455236701335675e-05
1.185892946473236634e+03 5.724474065594694971e-05
1.186793396698349170e+03 5.781327369217505369e-05
1.187693846923461706e+03 5.839031719369722651e-05
1.188594297148574242e+03 5.897604138832500376e-05
1.189494747373686778e+03 5.957062199635177694e-05
1.190395197598799314e+03 6.017423927474333976e-05
1.191295647823911850e+03 6.078707715776378605e-05
1.192196098049024386e+03 6.140932375668912253e-05
1.193096548274136921e+03 6.204117188542953914e-05
1.193996998499249457e+03 6.268281975333908314e-05
1.194897448724362221e+03 6.333447194179269368e-05
1.195797898949474757e+03 6.399633863405889268e-05
1.196698349174587293e+03 6.466863485680038825e-05
1.197598799399699828e+03 6.535158081072608429e-05
1.198499249624812364e+03 6.604540223883437178e-05
1.199399699849924900e+03 6.675033065810732273e-05
1.200300150075037436e+03 6.746660379330816513e-05
1.201200600300149972e+03 6.819446610610357474e-05
1.202101050525262508e+03 6.893416928481739330e-05
1.203001500750375044e+03 6.968597203779469142e-05
1.203901950975487580e+03 7.045013983304324772e-05
1.204802401200600343e+03 7.122694541511816614e-05
1.205702851425712879e+03 7.201666913308602642e-05
1.206603301650825415e+03 7.281959903041692651e-05
1.207503751875937951e+03 7.363603107189582709e-05
1.208404202101050487e+03 7.446626943025668485e-05
1.209304652326163023e+03 7.531062697447752589e-05
1.210205102551275559e+03 7.616942584402361328e-05
1.211105552776388095e+03 7.704299754098107753e-05
1.212006003001500630e+03 7.793168281641298610e-05
1.212906453226613166e+03 7.883583166061275892e-05
1.213806903451725702e+03 7.975580377233028036e-05
1.214707353676838466e+03 8.069197016239576265e-05
1.215607803901951002e+03 8.164471401523767490e-05
1.216508254127063537e+03 8.261442979512717381e-05
1.217408704352176073e+03 8.360152311809915975e-05
1.218309154577288609e+03 8.460641173002082793e-05
1.219209604802401145e+03 8.562952610119916154e-05
1.220110055027513681e+03 8.667130968232379521e-05
1.221010505252626217e+03 8.773221938999721016e-05
1.221910955477738753e+03 8.881272624732661604e-05
1.222811405702851289e+03 8.991331603831669646e-05
1.223711855927963825e+03 9.103448985407624355e-05
1.224612306153076588e+03 9.217676463412785798e-05
1.225512756378189124e+03 9.334067374296419416e-05
1.226413206603301660e+03 9.452676731892513742e-05
1.227313656828414196e+03 9.573561202656478096e-05
1.228214107053526732e+03 9.696779073149380042e-05
1.229114557278639268e+03 9.822390465811675381e-05
1.230015007503751804e+03 9.950457752668939607e-05
1.230915457728864340e+03 1.008104560171507768e-04
1.231815907953976875e+03 1.021422082150270466e-04
1.232716358179089411e+03 1.035005232320236753e-04
1.233616808404201947e+03 1.048861131450508762e-04
1.234517258629314711e+03 1.062997138979153856e-04
1.235417708854427246e+03 1.077420818590216765e-04
1.236318159079539782e+03 1.092139959541811188e-04
1.237218609304652318e+03 1.107162703318767587e-04
1.238119059529764854e+03 1.122497544462617593e-04
1.239019509754877390e+03 1.138153176884459104e-04
1.239919959979989926e+03 1.154138475712605322e-04
1.240820410205102462e+03 1.170462721229558459e-04
1.241720860430214998e+03 1.187135709713602798e-04
1.242621310655327534e+03 1.204167549029596491e-04
1.243521760880440070e+03 1.221568517936587198e-04
1.244422211105552606e+03 1.239349161250123275e-04
1.245322661330665369e+03 1.257520591310633522e-04
1.246223111555777905e+03 1.276094537799879686e-04
1.247123561780890441e+03 1.295083102945897670e-04
1.248024012006002977e+03 1.314498675093906928e-04
1.248924462231115513e+03 1.334354004486492556e-04
1.249824912456228049e+03 1.354662388072319309e-04
1.250725362681340584e+03 1.375437780666235348e-04
1.251625812906453120e+03 1.396694721801240821e-04
1.252526263131565656e+03 1.418448247512473783e-04
1.253426713356678192e+03 1.440713910681228006e-04
1.254327163581790728e+03 1.463507883839483819e-04
1.255227613806903491e+03 1.486847026183114612e-04
1.256128064032016027e+03 1.510748864848817145e-04
1.257028514257128563e+03 1.535231605736727940e-04
1.257928964482241099e+03 1.560314206745358121e-04
1.258829414707353635e+03 1.586016418243257507e-04
1.259729864932466171e+03 1.612358811075899356e-04
1.260630315157578707e+03 1.639362840810011516e-04
1.261530765382691243e+03 1.667050878046491145e-04
1.262431215607803779e+03 1.695446214713753534e-04
1.263331665832916315e+03 1.724573100099428661e-04
1.264232116058028851e+03 1.754456831179138099e-04
1.265132566283141614e+03 1.785123867147316089e-04
1.266033016508254150e+03 1.816601855963578273e-04
1.266933466733366686e+03 1.848919617129941688e-04
1.267833916958479222e+03 1.882107210820483355e-04
1.268734367183591758e+03 1.916196098313257602e-04
1.269634817408704293e+03 1.951219282569208234e-04
1.270535267633816829e+03 1.987211299896782929e-04
1.271435717858929365e+03 2.024208206159839685e-04
1.272336168084041901e+03 2.062247685559604599e-04
1.273236618309154437e+03 2.101369258976976053e-04
1.274137068534266973e+03 2.141614361229801893e-04
1.275037518759379736e+03 2.183026279268362308e-04
1.275937968984492272e+03 2.225650358985915888e-04
1.276838419209604808e+03 2.269534431718321654e-04
1.277738869434717344e+03 2.314728847660429370e-04
1.278639319659829880e+03 2.361286328155884503e-04
1.279539769884942416e+03 2.409262107346471569e-04
1.280440220110054952e+03 2.458714253028875169e-04
1.281340670335167488e+03 2.509704006783261207e-04
1.282241120560280024e+03 2.562295935265215666e-04
1.283141570785392560e+03 2.616557942551635523e-04
1.284042021010505096e+03 2.672561414121256114e-04
1.284942471235617859e+03 2.730381555015441199e-04
1.285842921460730395e+03 2.790097778703361621e-04
1.286743371685842931e+03 2.851793933936492957e-04
1.287643821910955467e+03 2.915558484290010281e-04
1.288544272136068003e+03 2.981484818554104772e-04
1.289444722361180538e+03 3.049671662356638613e-04
1.290345172586293074e+03 3.120223497043694274e-04
1.291245622811405610e+03 3.193250956738741741e-04
1.292146073036518146e+03 3.268871221052859410e-04
1.293046523261630682e+03 3.347208439535063573e-04
1.293946973486743218e+03 3.428394234197621989e-04
1.294847423711855754e+03 3.512568282290657196e-04
1.295747873936968517e+03 3.599878957771383186e-04
1.296648324162081053e+03 3.690483996327725879e-04
1.297548774387193589e+03 3.784551166426779732e-04
1.298449224612306125e+03 3.882259003336351912e-04
1.299349674837418661e+03 3.983797678303901729e-04
1.300250125062531197e+03 4.089369992243549403e-04
1.301150575287643733e+03 4.199192360505538211e-04
1.302051025512756269e+03 4.313495838748761615e-04
1.302951475737868805e+03 4.432527348734231179e-04
1.303851925962981340e+03 4.556551083542083238e-04
1.304752376188093876e+03 4.685849981171943349e-04
1.305652826413206640e+03 4.820727307612904570e-04
1.306553276638319176e+03 4.961508394171689103e-04
1.307453726863431712e+03 5.108542571917912322e-04
1.308354177088544247e+03 5.262205365411269436e-04
1.309254627313656783e+03 5.422900926344429362e-04
1.310155077538769319e+03 5.591064662984421025e-04
1.311055527763881855e+03 5.767166211053122681e-04
1.311955977988994391e+03 5.951712722767600822e-04
1.312856428214106927e+03 6.145252406430612392e-04
1.313756878439219463e+03 6.348378555999956586e-04
1.314657328664331999e+03 6.561734162261389711e-04
1.315557778889444762e+03 6.786017028128757443e-04
1.316458229114557298e+03 7.021985470038740688e-04
1.317358679339669834e+03 7.270464751608978968e-04
1.318259129564782370e+03 7.532354230446640722e-04
1.319159579789894906e+03 7.808635410189658684e-04
1.320060030015007442e+03 8.100380973720163868e-04
1.320960480240119978e+03 8.408764993934977503e-04
1.321860930465232514e+03 8.735074887892085816e-04
1.322761380690345050e+03 9.080725484917265408e-04
1.323661830915457585e+03 9.447274357789419265e-04
1.324562281140570121e+03 9.836438448935693607e-04
1.325462731365682885e+03 1.025011361322170468e-03
1.326363181590795421e+03 1.069039761140905655e-03
1.327263631815907956e+03 1.115961686770377713e-03
1.328164082041020492e+03 1.166035858565467364e-03
1.329064532266133028e+03 1.219550716656829384e-03
1.329964982491245564e+03 1.276828360958848999e-03
1.330865432716358100e+03 1.338229255961295369e-03
1.331765882941470636e+03 1.404157873272461566e-03
1.332666333166583172e+03 1.475069299564929579e-03
1.333566783391695708e+03 1.551477131933180851e-03
1.334467233616808244e+03 1.633962948457152098e-03
1.335367683841921007e+03 1.723187289145604751e-03
1.336268134067033543e+03 1.819902532633797072e-03
1.337168584292146079e+03 1.924968526113885522e-03
1.338069034517258615e+03 2.039371548417587710e-03
1.338969484742371151e+03 2.164247381419197227e-03
1.339869934967483687e+03 2.300909499666491630e-03
1.340770385192596223e+03 2.450883231295834970e-03
1.341670835417708759e+03 2.615947632336453142e-03
1.342571285642821294e+03 2.798187623611530193e-03
1.343471735867933830e+03 3.000059099669979100e-03
1.344372186093046366e+03 3.224470646941607170e-03
1.345272636318158902e+03 3.474886897039882860e-03
1.346173086543271666e+03 3.755460235722183054e-03
1.347073536768384201e+03 4.071200104555612945e-03
1.347973986993496737e+03 4.428192646120737708e-03
1.348874437218609273e+03 4.833888371556802413e-03
1.349774887443721809e+03 5.297482700140696346e-03
1.350675337668834345e+03 5.830424806855190149e-03
1.351575787893946881e+03 6.447106057809795336e-03
1.352476238119059417e+03 7.165803298808009689e-03
1.353376688344171953e+03 8.009988821576117038e-03
1.354277138569284489e+03 9.010175906213103297e-03
1.355177588794397025e+03 1.020655927902767816e-02
1.356078039019509788e+03 1.165285539503667367e-02
1.356978489244622324e+03 1.342198578372915709e-02
1.357878939469734860e+03 1.561464216405693620e-02
1.358779389694847396e+03 1.837243408529326549e-02
1.359679839919959932e+03 2.189843078297558712e-02
1.360580290145072468e+03 2.648973892243367684e-02
1.361480740370185003e+03 3.258957866623285460e-02
1.362381190595297539e+03 4.086979425769895341e-02
1.363281640820410075e+03 5.235504786022408125e-02
1.364182091045522611e+03 6.857819721193986195e-02
1.365082541270635147e+03 9.163728715413842207e-02
1.365982991495747910e+03 1.235718065854765763e-01
1.366883441720860446e+03 1.633587059304693889e-01
1.367783891945972982e+03 2.000169431669319153e-01
1.368684342171085518e+03 2.115751644219807381e-01
1.369584792396198054e+03 1.886071971619089904e-01
1.370485242621310590e+03 1.486659881843738207e-01
1.371385692846423126e+03 1.111104064170429229e-01
1.372286143071535662e+03 8.248917035143617238e-02
1.373186593296648198e+03 6.213217736628860732e-02
1.374087043521760734e+03 4.781078588954264935e-02
1.374987493746873270e+03 3.761382498451686790e-02
1.375887943971986033e+03 3.020667586666589757e-02
1.376788394197098569e+03 2.470742909595133666e-02
1.377688844422211105e+03 2.053761927167404092e-02
1.378589294647323641e+03 1.731371093438330636e-02
1.379489744872436177e+03 1.477687083452113546e-02
1.380390195097548713e+03 1.274891563004565236e-02
1.381290645322661248e+03 1.110471234574431434e-02
1.382191095547773784e+03 9.754691293093137663e-03
1.383091545772886320e+03 8.633581645379632963e-03
1.383991995997998856e+03 7.693025241975581102e-03
1.384892446223111392e+03 6.896644802475373863e-03
1.385792896448224155e+03 6.216690656081672040e-03
1.386693346673336691e+03 5.631721194253678370e-03
1.387593796898449227e+03 5.124972397223363785e-03
1.388494247123561763e+03 4.683194379293487142e-03
1.389394697348674299e+03 4.295809415906608024e-03
1.390295147573786835e+03 3.954294560324119259e-03
1.391195597798899371e+03 3.651723450372833593e-03
1.392096048024011907e+03 3.382422535472150941e-03
1.392996498249124443e+03 3.141710209097115306e-03
1.393896948474236979e+03 2.925696596266952679e-03
1.394797398699349515e+03 2.731128737436520036e-03
1.395697848924462278e+03 2.555269939851946039e-03
1.396598299149574814e+03 2.395804873577625244e-03
1.397498749374687350e+03 2.250764337660066724e-03
1.398399199599799886e+03 2.118465225940694904e-03
1.399299649824912422e+03 1.997462229950658971e-03
1.400200100050024957e+03 1.886508696941482889e-03
1.401100550275137493e+03 1.784524793105940954e-03
1.402001000500250029e+03 1.690571530476780862e-03
1.402901450725362565e+03 1.603829424748436485e-03
1.403801900950475101e+03 1.523580715391336304e-03
1.404702351175587637e+03 1.449194552664832738e-03
1.405602801400700173e+03 1.380114693317313710e-03
1.406503251625812936e+03 1.315849195690247655e-03
1.407403701850925472e+03 1.255961724243311690e-03
1.408304152076038008e+03 1.200064182719780314e-03
1.409204602301150544e+03 1.147810453590430817e-03
1.410105052526263080e+03 1.098891070820860738e-03
1.411005502751375616e+03 1.053028685172479641e-03
1.411905952976488152e+03 1.009974185750691592e-03
1.412806403201600688e+03 9.695033213330154576e-04
1.413706853426713224e+03 9.314137461564642737e-04
1.414607303651825760e+03 8.955224946242220556e-04
1.415507753876938295e+03 8.616638153850579010e-04
1.416408204102051059e+03 8.296872759801797491e-04
1.417308654327163595e+03 7.994560917070007555e-04
1.418209104552276131e+03 7.708456647647219306e-04
1.419109554777388666e+03 7.437423065578179036e-04
1.420010005002501202e+03 7.180421137394758530e-04
1.420910455227613738e+03 6.936499762467058291e-04
1.421810905452726274e+03 6.704786998367886315e-04
1.422711355677838810e+03 6.484482296650337721e-04
1.423611805902951346e+03 6.274849613836640683e-04
1.424512256128063882e+03 6.075211269524645723e-04
1.425412706353176418e+03 5.884942469835546548e-04
1.426313156578289181e+03 5.703466433102359233e-04
1.427213606803401717e+03 5.530250070322226350e-04
1.428114057028514253e+03 5.364800098903629291e-04
1.429014507253626789e+03 5.206659464428548770e-04
1.429914957478739325e+03 5.055404100644391796e-04
1.430815407703851861e+03 4.910640133949779841e-04
1.431715857928964397e+03 4.772001572693541677e-04
1.432616308154076933e+03 4.639148041835397507e-04
1.433516758379189469e+03 4.511762457020884135e-04
1.434417208604302004e+03 4.389549059918295445e-04
1.435317658829414540e+03 4.272231763026146096e-04
1.436218109054527304e+03 4.159552640496362390e-04
1.437118559279639840e+03 4.051270526033648868e-04
1.438019009504752376e+03 3.947159719534627190e-04
1.438919459729864911e+03 3.847008813635139366e-04
1.439819909954977447e+03 3.750619621413496031e-04
1.440720360180089983e+03 3.657806186880133213e-04
1.441620810405202519e+03 3.568393879876869713e-04
1.442521260630315055e+03 3.482218589231169423e-04
1.443421710855427591e+03 3.399126009247854037e-04
1.444322161080540127e+03 3.318970943054223009e-04
1.445222611305652663e+03 3.241616625486735330e-04
1.446123061530765426e+03 3.166934133375896854e-04
1.447023511755877962e+03 3.094801872843291023e-04
1.447923961980990498e+03 3.025105086501612994e-04
1.448824412206103034e+03 2.957735385090512503e-04
1.449724862431215570e+03 2.892590353930762632e-04
1.450625312656328106e+03 2.829573175025783954e-04
1.451525762881440642e+03 2.768592235622790000e-04
1.452426213106553178e+03 2.709560784201713295e-04
1.453326663331665713e+03 2.652396631813742499e-04
1.454227113556778249e+03 2.597021874783207924e-04
1.455127563781890785e+03 2.543362627988787674e-04
1.456028014007003321e+03 2.491348777161165066e-04
1.456928464232116085e+03 2.440913758593602552e-04
1.457828914457228620e+03 2.391994349136380602e-04
1.458729364682341156e+03 2.344530452050837895e-04
1.459629814907453692e+03 2.298464892452807030e-04
1.460530265132566228e+03 2.253743248395765437e-04
1.461430715357678764e+03 2.210313746869894480e-04
1.462331165582791300e+03 2.168127137869623269e-04
1.463231615807903836e+03 2.127136497120412826e-04
1.464132066033016372e+03 2.087297066685689850e-04
1.465032516258128908e+03 2.048566142739246729e-04
1.465932966483241444e+03 2.010902978389206687e-04
1.466833416708354207e+03 1.974268690681046750e-04
1.467733866933466743e+03 1.938626153762012443e-04
1.468634317158579279e+03 1.903939895352652154e-04
1.469534767383691815e+03 1.870176018804591434e-04
1.470435217608804351e+03 1.837302125704265974e-04
1.471335667833916887e+03 1.805287226475219583e-04
1.472236118059029423e+03 1.774101663057826459e-04
1.473136568284141958e+03 1.743717040642662672e-04
1.474037018509254494e+03 1.714106164078101980e-04
1.474937468734367030e+03 1.685242986901073982e-04
1.475837918959479566e+03 1.657102558945106432e-04
1.476738369184592329e+03 1.629660961472568072e-04
1.477638819409704865e+03 1.602895249594556354e-04
1.478539269634817401e+03 1.576783406224927669e-04
1.479439719859929937e+03 1.551304304123952732e-04
1.480340170085042473e+03 1.526437673533107171e-04
1.481240620310155009e+03 1.502164055117856086e-04
1.482141070535267545e+03 1.478464745009558140e-04
1.483041520760380081e+03 1.455321757976396309e-04
1.483941970985492617e+03 1.432717814779995986e-04
1.484842421210605153e+03 1.410636319629018779e-04
1.485742871435717689e+03 1.389061308283717105e-04
1.486643321660830452e+03 1.367977408016488635e-04
1.487543771885942988e+03 1.347369816472046230e-04
1.488444222111055524e+03 1.327224285599496747e-04
1.489344672336168060e+03 1.307527112426459803e-04
1.490245122561280596e+03 1.288265109761772126e-04
1.491145572786393132e+03 1.269425564920521248e-04
1.492046023011505667e+03 1.250996217063300156e-04
1.492946473236618203e+03 1.232965244045981757e-04
1.493846923461730739e+03 1.215321247908383222e-04
1.494747373686843275e+03 1.198053231894496989e-04
1.495647823911955811e+03 1.181150576033690317e-04
1.496548274137068574e+03 1.164603032957240591e-04
1.497448724362181110e+03 1.148400734374578478e-04
1.498349174587293646e+03 1.132534165539354775e-04
1.499249624812406182e+03 1.116994132289786661e-04
1.500150075037518718e+03 1.101771746603045289e-04
1.501050525262631254e+03 1.086858411124254576e-04
1.501950975487743790e+03 1.072245795980011061e-04
1.502851425712856326e+03 1.057925831473506724e-04
1.503751875937968862e+03 1.043890747847027423e-04
1.504652326163081398e+03 1.030133083013452935e-04
1.505552776388193934e+03 1.016645618759580270e-04
1.506453226613306470e+03 1.003421346001929934e-04
1.507353676838419233e+03 9.904534524042435417e-05
1.508254127063531769e+03 9.777352888975721274e-05
1.509154577288644305e+03 9.652603714292694868e-05
1.510055027513756841e+03 9.530225017197616944e-05
1.510955477738869376e+03 9.410158113788489708e-05
1.511855927963981912e+03 9.292346192853088527e-05
1.512756378189094448e+03 9.176733456765616284e-05
1.513656828414206984e+03 9.063265125181101957e-05
1.514557278639319520e+03 8.951887694271670488e-05
1.515457728864432056e+03 8.842549778703684546e-05
1.516358179089544592e+03 8.735202468192970412e-05
1.517258629314657355e+03 8.629798318272385112e-05
1.518159079539769891e+03 8.526290559480359835e-05
1.519059529764882427e+03 8.424633231982573019e-05
1.519959979989994963e+03 8.324782114761432588e-05
1.520860430215107499e+03 8.226695049093373695e-05
1.521760880440220035e+03 8.130331179905065319e-05
1.522661330665332571e+03 8.035650577369527869e-05
1.523561780890445107e+03 7.942614289572394839e-05
1.524462231115557643e+03 7.851184433640920086e-05
1.525362681340670179e+03 7.761324220315736846e-05
1.526263131565782714e+03 7.672997913889502083e-05
1.527163581790895478e+03 7.586170781470982262e-05
1.528064032016008014e+03 7.500809063388109424e-05
1.528964482241120550e+03 7.416879948602073331e-05
1.529864932466233086e+03 7.334351545053905514e-05
1.530765382691345621e+03 7.253192848036824677e-05
1.531665832916458157e+03 7.173373709351645760e-05
1.532566283141570693e+03 7.094864807981325660e-05
1.533466733366683229e+03 7.017637622264185347e-05
1.534367183591795765e+03 6.941664403401310516e-05
1.535267633816908301e+03 6.866918150145424969e-05
1.536168084042020837e+03 6.793372584556185245e-05
1.537068534267133600e+03 6.721002128734524731e-05
1.537968984492246136e+03 6.649781882468296795e-05
1.538869434717358672e+03 6.579687601734684295e-05
1.539769884942471208e+03 6.510695678012571805e-05
1.540670335167583744e+03 6.442783118365086282e-05
1.541570785392696280e+03 6.375927526254767015e-05
1.542471235617808816e+03 6.310107083059577412e-05
1.543371685842921352e+03 6.245300530257586282e-05
1.544272136068033888e+03 6.181487152252557616e-05
1.545172586293146423e+03 6.118646759813032091e-05
1.546073036518258959e+03 6.056759674099548282e-05
1.546973486743371723e+03 5.995806711255408447e-05
1.547873936968484259e+03 5.935769167538846756e-05
1.548774387193596795e+03 5.876628804974155643e-05
1.549674837418709330e+03 5.818367837500954264e-05
1.550575287643821866e+03 5.760968917602460180e-05
1.551475737868934402e+03 5.704415123392961328e-05
1.552376188094046938e+03 5.648689946147239283e-05
1.553276638319159474e+03 5.593777278254259802e-05
1.554177088544272010e+03 5.539661401578706355e-05
1.555077538769384546e+03 5.486326976214887764e-05
1.555977988994497082e+03 5.433759029617585675e-05
1.556878439219609618e+03 5.381942946095765525e-05
1.557778889444722381e+03 5.330864456655116679e-05
1.558679339669834917e+03 5.280509629176389634e-05
1.559579789894947453e+03 5.230864858916862059e-05
1.560480240120059989e+03 5.181916859322805520e-05
1.561380690345172525e+03 5.133652653141436629e-05
1.562281140570285061e+03 5.086059563820904793e-05
1.563181590795397597e+03 5.039125207188433386e-05
1.564082041020510133e+03 4.992837483395552099e-05
1.564982491245622668e+03 4.947184569121067851e-05
1.565882941470735204e+03 4.902154910022614133e-05
1.566783391695847740e+03 4.857737213427113106e-05
1.567683841920960504e+03 4.813920441252264912e-05
1.568584292146073039e+03 4.770693803150246942e-05
1.569484742371185575e+03 4.728046749865877769e-05
1.570385192596298111e+03 4.685968966801650935e-05
1.571285642821410647e+03 4.644450367782213809e-05
1.572186093046523183e+03 4.603481089011284894e-05
1.573086543271635719e+03 4.563051483214314606e-05
1.573986993496748255e+03 4.523152113960296234e-05
1.574887443721860791e+03 4.483773750156566103e-05
1.575787893946973327e+03 4.444907360710487524e-05
1.576688344172085863e+03 4.406544109352531781e-05
1.577588794397198626e+03 4.368675349614784936e-05
1.578489244622311162e+03 4.331292619959989311e-05
1.579389694847423698e+03 4.294387639055599062e-05
1.580290145072536234e+03 4.257952301188370700e-05
1.581190595297648770e+03 4.221978671814290515e-05
1.582091045522761306e+03 4.186458983239594233e-05
1.582991495747873842e+03 4.151385630428356440e-05
1.583891945972986377e+03 4.116751166932523695e-05
1.584792396198098913e+03 4.082548300940154142e-05
1.585692846423211449e+03 4.048769891438091281e-05
1.586593296648323985e+03 4.015408944485377455e-05
1.587493746873436749e+03 3.982458609593478885e-05
1.588394197098549284e+03 3.949912176210075045e-05
1.589294647323661820e+03 3.917763070303255997e-05
1.590195097548774356e+03 3.886004851042042967e-05
1.591095547773886892e+03 3.854631207571227044e-05
1.591995997998999428e+03 3.823635955876639837e-05
1.592896448224111964e+03 3.793013035738346825e-05
1.593796898449224500e+03 3.762756507768931605e-05
1.594697348674337036e+03 3.732860550533978927e-05
1.595597798899449572e+03 3.703319457752497312e-05
1.596498249124562108e+03 3.674127635574300370e-05
1.597398699349674871e+03 3.645279599932436596e-05
1.598299149574787407e+03 3.616769973967898179e-05
1.599199599799899943e+03 3.588593485524632193e-05
1.600100050025012479e+03 3.560744964712485858e-05
1.601000500250125015e+03 3.533219341536122802e-05
1.601900950475237551e+03 3.506011643587823889e-05
1.602801400700350086e+03 3.479116993802210914e-05
1.603701850925462622e+03 3.452530608271002564e-05
1.604602301150575158e+03 3.426247794115934436e-05
1.605502751375687694e+03 3.400263947418273738e-05
1.606403201600800230e+03 3.374574551202790066e-05
1.607303651825912766e+03 3.349175173475182785e-05
1.608204102051025529e+03 3.324061465310694931e-05
1.609104552276138065e+03 3.299229158992760349e-05
1.610005002501250601e+03 3.274674066200343019e-05
1.610905452726363137e+03 3.250392076241966197e-05
1.611805902951475673e+03 3.226379154335671742e-05
1.612706353176588209e+03 3.202631339933050241e-05
1.613606803401700745e+03 3.179144745086553151e-05
1.614507253626813281e+03 3.155915552858284484e-05
1.615407703851925817e+03 3.132940015769418912e-05
1.616308154077038353e+03 3.110214454289058391e-05
1.617208604302150889e+03 3.087735255361214766e-05
1.618109054527263652e+03 3.065498870968905284e-05
1.619009504752376188e+03 3.043501816734385252e-05
1.619909954977488724e+03 3.021740670554322152e-05
1.620810405202601260e+03 3.000212071268960174e-05
1.621710855427713796e+03 2.978912717364508775e-05
1.622611305652826331e+03 2.957839365707484698e-05
1.623511755877938867e+03 2.936988830310327474e-05
1.624412206103051403e+03 2.916357981127413237e-05
1.625312656328163939e+03 2.895943742880473457e-05
1.626213106553276475e+03 2.875743093912715558e-05
1.627113556778389011e+03 2.855753065070871561e-05
1.628014007003501774e+03 2.835970738614213216e-05
1.628914457228614310e+03 2.816393247150070445e-05
1.629814907453726846e+03 2.797017772594870895e-05
1.630715357678839382e+03 2.777841545160170014e-05
1.631615807903951918e+03 2.758861842362841886e-05
1.632516258129064454e+03 2.740075988058964635e-05
1.633416708354176990e+03 2.721481351500550983e-05
1.634317158579289526e+03 2.703075346414663177e-05
1.635217608804402062e+03 2.684855430104196713e-05
1.636118059029514598e+03 2.666819102569866311e-05
1.637018509254627133e+03 2.648963905652715502e-05
1.637918959479739897e+03 2.631287422196613136e-05
1.638819409704852433e+03 2.613787275230384461e-05
1.639719859929964969e+03 2.596461127168728030e-05
1.640620310155077505e+03 2.579306679031749042e-05
1.641520760380190040e+03 2.562321669682389810e-05
1.642421210605302576e+03 2.545503875081446324e-05
1.643321660830415112e+03 2.528851107559554955e-05
1.644222111055527648e+03 2.512361215105899927e-05
1.645122561280640184e+03 2.496032080672937499e-05
1.646023011505752720e+03 2.479861621497112813e-05
1.646923461730865256e+03 2.463847788434677985e-05
1.647823911955978019e+03 2.447988565312629047e-05
1.648724362181090555e+03 2.432281968294228806e-05
1.649624812406203091e+03 2.416726045258547420e-05
1.650525262631315627e+03 2.401318875194081672e-05
1.651425712856428163e+03 2.386058567605720099e-05
1.652326163081540699e+03 2.370943261934850685e-05
1.653226613306653235e+03 2.355971126992361747e-05
1.654127063531765771e+03 2.341140360404021708e-05
1.655027513756878307e+03 2.326449188068182845e-05
1.655927963981990843e+03 2.311895863625213073e-05
1.656828414207103378e+03 2.297478667938597797e-05
1.657728864432216142e+03 2.283195908587278849e-05
1.658629314657328678e+03 2.269045919369057024e-05
1.659529764882441214e+03 2.255027059814657415e-05
1.660430215107553749e+03 2.241137714712340641e-05
1.661330665332666285e+03 2.227376293642707264e-05
1.662231115557778821e+03 2.213741230523405730e-05
1.663131565782891357e+03 2.200230983163666893e-05
1.664032016008003893e+03 2.186844032828264673e-05
1.664932466233116429e+03 2.173578883810701909e-05
1.665832916458228965e+03 2.160434063015550613e-05
1.666733366683341501e+03 2.147408119549404511e-05
1.667633816908454037e+03 2.134499624320654624e-05
1.668534267133566800e+03 2.121707169647491902e-05
1.669434717358679336e+03 2.109029368874223664e-05
1.670335167583791872e+03 2.096464855995474214e-05
1.671235617808904408e+03 2.084012285288339104e-05
1.672136068034016944e+03 2.071670330951974644e-05
1.673036518259129480e+03 2.059437686754852728e-05
1.673936968484242016e+03 2.047313065689093461e-05
1.674837418709354552e+03 2.035295199632040941e-05
1.675737868934467087e+03 2.023382839014635967e-05
1.676638319159579623e+03 2.011574752496676484e-05
1.677538769384692159e+03 1.999869726648692672e-05
1.678439219609804923e+03 1.988266565640095507e-05
1.679339669834917459e+03 1.976764090933924041e-05
1.680240120060029994e+03 1.965361140987553429e-05
1.681140570285142530e+03 1.954056570959453133e-05
1.682041020510255066e+03 1.942849252421896392e-05
1.682941470735367602e+03 1.931738073079372587e-05
1.683841920960480138e+03 1.920721936492621532e-05
1.684742371185592674e+03 1.909799761808217530e-05
1.685642821410705210e+03 1.898970483493374204e-05
1.686543271635817746e+03 1.888233051076171340e-05
1.687443721860930282e+03 1.877586428890803301e-05
1.688344172086043045e+03 1.867029595827870322e-05
1.689244622311155581e+03 1.856561545089542955e-05
1.690145072536268117e+03 1.846181283949571215e-05
1.691045522761380653e+03 1.835887833517889714e-05
1.691945972986493189e+03 1.825680228509928579e-05
1.692846423211605725e+03 1.815557517020284555e-05
1.693746873436718261e+03 1.805518760300782105e-05
1.694647323661830796e+03 1.795563032542936045e-05
1.695547773886943332e+03 1.785689420664431131e-05
1.696448224112055868e+03 1.775897024099840215e-05
1.697348674337168404e+03 1.766184954595248567e-05
1.698249124562281168e+03 1.756552336006866709e-05
1.699149574787393703e+03 1.746998304103435250e-05
1.700050025012506239e+03 1.737522006372393930e-05
1.700950475237618775e+03 1.728122601829748471e-05
1.701850925462731311e+03 1.718799260833427550e-05
1.702751375687843847e+03 1.709551164900324018e-05
1.703651825912956383e+03 1.700377506526582627e-05
1.704552276138068919e+03 1.691277489011424638e-05
1.705452726363181455e+03 1.682250326284093903e-05
1.706353176588293991e+03 1.673295242734212427e-05
1.707253626813406527e+03 1.664411473045089712e-05
1.708154077038519290e+03 1.655598262030349405e-05
1.709054527263631826e+03 1.646854864473295605e-05
1.709954977488744362e+03 1.638180544969535156e-05
1.710855427713856898e+03 1.629574577772232178e-05
1.711755877938969434e+03 1.621036246640438354e-05
1.712656328164081970e+03 1.612564844689954815e-05
1.713556778389194506e+03 1.604159674247117320e-05
1.714457228614307041e+03 1.595820046705148949e-05
1.715357678839419577e+03 1.587545282383109131e-05
1.716258129064532113e+03 1.579334710387446784e-05
1.717158579289644649e+03 1.571187668475986478e-05
1.718059029514757185e+03 1.563103502924425873e-05
1.718959479739869948e+03 1.555081568395227560e-05
1.719859929964982484e+03 1.547121227808797545e-05
1.720760380190095020e+03 1.539221852217014080e-05
1.721660830415207556e+03 1.531382820679049250e-05
1.722561280640320092e+03 1.523603520139249347e-05
1.723461730865432628e+03 1.515883345307409647e-05
1.724362181090545164e+03 1.508221698540957376e-05
1.725262631315657700e+03 1.500617989729310371e-05
1.726163081540770236e+03 1.493071636180269119e-05
1.727063531765882772e+03 1.485582062508394085e-05
1.727963981990995308e+03 1.478148700525311381e-05
1.728864432216108071e+03 1.470770989131983901e-05
1.729764882441220607e+03 1.463448374212821360e-05
1.730665332666333143e+03 1.456180308531635001e-05
1.731565782891445679e+03 1.448966251629413084e-05
1.732466233116558215e+03 1.441805669723853973e-05
1.733366683341670750e+03 1.434698035610637667e-05
1.734267133566783286e+03 1.427642828566380217e-05
1.735167583791895822e+03 1.420639534253264088e-05
1.736068034017008358e+03 1.413687644625327515e-05
1.736968484242120894e+03 1.406786657836302404e-05
1.737868934467233430e+03 1.399936078149073795e-05
1.738769384692346193e+03 1.393135415846631798e-05
1.739669834917458729e+03 1.386384187144592567e-05
1.740570285142571265e+03 1.379681914105122481e-05
1.741470735367683801e+03 1.373028124552398994e-05
1.742371185592796337e+03 1.366422351989418288e-05
1.743271635817908873e+03 1.359864135516250317e-05
1.744172086043021409e+03 1.353353019749659790e-05
1.745072536268133945e+03 1.346888554744037508e-05
1.745972986493246481e+03 1.340470295913682038e-05
1.746873436718359017e+03 1.334097803956374648e-05
1.747773886943471553e+03 1.327770644778194962e-05
1.748674337168584316e+03 1.321488389419608020e-05
1.749574787393696852e+03 1.315250613982767507e-05
1.750475237618809388e+03 1.309056899559999065e-05
1.751375687843921924e+03 1.302906832163493852e-05
1.752276138069034459e+03 1.296800002656110688e-05
1.753176588294146995e+03 1.290736006683360330e-05
1.754077038519259531e+03 1.284714444606455140e-05
1.754977488744372067e+03 1.278734921436472091e-05
1.755877938969484603e+03 1.272797046769596765e-05
1.756778389194597139e+03 1.266900434723389878e-05
1.757678839419709675e+03 1.261044703874088210e-05
1.758579289644822438e+03 1.255229477194947042e-05
1.759479739869934974e+03 1.249454381995558721e-05
1.760380190095047510e+03 1.243719049862107352e-05
1.761280640320160046e+03 1.238023116598652820e-05
1.762181090545272582e+03 1.232366222169315366e-05
1.763081540770385118e+03 1.226748010641355654e-05
1.763981990995497654e+03 1.221168130129204864e-05
1.764882441220610190e+03 1.215626232739388917e-05
1.765782891445722726e+03 1.210121974516276862e-05
1.766683341670835262e+03 1.204655015388725930e-05
1.767583791895947797e+03 1.199225019117547536e-05
1.768484242121060333e+03 1.193831653243842335e-05
1.769384692346173097e+03 1.188474589038067453e-05
1.770285142571285633e+03 1.183153501449985309e-05
1.771185592796398169e+03 1.177868069059354439e-05
1.772086043021510704e+03 1.172617974027358089e-05
1.772986493246623240e+03 1.167402902048883053e-05
1.773886943471735776e+03 1.162222542305410580e-05
1.774787393696848312e+03 1.157076587418786504e-05
1.775687843921960848e+03 1.151964733405555834e-05
1.776588294147073384e+03 1.146886679632112188e-05
1.777488744372185920e+03 1.141842128770487250e-05
1.778389194597298456e+03 1.136830786754832754e-05
1.779289644822411219e+03 1.131852362738567059e-05
1.780190095047523755e+03 1.126906569052181896e-05
1.781090545272636291e+03 1.121993121161656604e-05
1.781990995497748827e+03 1.117111737627600484e-05
1.782891445722861363e+03 1.112262140064888796e-05
1.783791895947973899e+03 1.107444053103006879e-05
1.784692346173086435e+03 1.102657204346957890e-05
1.785592796398198971e+03 1.097901324338756851e-05
1.786493246623311506e+03 1.093176146519517626e-05
1.787393696848424042e+03 1.088481407192115877e-05
1.788294147073536578e+03 1.083816845484362615e-05
1.789194597298649342e+03 1.079182203312814713e-05
1.790095047523761878e+03 1.074577225347045706e-05
1.790995497748874413e+03 1.070001658974489515e-05
1.791895947973986949e+03 1.065455254265803070e-05
1.792796398199099485e+03 1.060937763940732915e-05
1.793696848424212021e+03 1.056448943334495621e-05
1.794597298649324557e+03 1.051988550364647280e-05
1.795497748874437093e+03 1.047556345498454780e-05
1.796398199099549629e+03 1.043152091720723800e-05
1.797298649324662165e+03 1.038775554502137221e-05
1.798199099549774701e+03 1.034426501768013172e-05
1.799099549774887464e+03 1.030104703867545868e-05
1.800000000000000000e+03 1.025809933543504704e-05
