0.000000000000000000e+00 6.327155872642048618e-06
9.004502251125562351e-01 5.879639181769470286e-06
1.800900450225112470e+00 4.924578762832683440e-06
2.701350675337668594e+00 3.974994352621707683e-06
3.601800900450224940e+00 3.237638048205013828e-06
4.502251125562780842e+00 2.711719162044385442e-06
5.402701350675337189e+00 2.343497128068617555e-06
6.303151575787893535e+00 2.083709508883901145e-06
7.203601800900449881e+00 1.897363170311772343e-06
8.104052026013006227e+00 1.761249808298583366e-06
9.004502251125561685e+00 1.660170097750106600e-06
9.904952476238118919e+00 1.584088866565347331e-06
1.080540270135067438e+01 1.526275852285781472e-06
1.170585292646323161e+01 1.482137596539999356e-06
1.260630315157578707e+01 1.448487134520372258e-06
1.350675337668834430e+01 1.423083462607805770e-06
1.440720360180089976e+01 1.404337251852360117e-06
1.530765382691345522e+01 1.391120306127632913e-06
1.620810405202601245e+01 1.382641064506489062e-06
1.710855427713856969e+01 1.378363282118085720e-06
1.800900450225112337e+01 1.377953981836630551e-06
1.890945472736368060e+01 1.381252316261710781e-06
1.980990495247623784e+01 1.388254578204069815e-06
2.071035517758879507e+01 1.399113136598225152e-06
2.161080540270134875e+01 1.414149135102979492e-06
2.251125562781390599e+01 1.433880818893178060e-06
2.341170585292646322e+01 1.459071789103108030e-06
2.431215607803901690e+01 1.490806876945158687e-06
2.521260630315157414e+01 1.530608506883156096e-06
2.611305652826413137e+01 1.580614712569600391e-06
2.701350675337668861e+01 1.643853548190154343e-06
2.791395697848924229e+01 1.724670812394577995e-06
2.881440720360179952e+01 1.829402702781280603e-06
2.971485742871435676e+01 1.967431723776363704e-06
3.061530765382691044e+01 2.152793626742476809e-06
3.151575787893946767e+01 2.406365980520242762e-06
3.241620810405202491e+01 2.757855165702298930e-06
3.331665832916458214e+01 3.244464346765543367e-06
3.421710855427713938e+01 3.901525518288602195e-06
3.511755877938969661e+01 4.745362743176332328e-06
3.601800900450224674e+01 5.715188125101379627e-06
3.691845922961480397e+01 6.499620745247832277e-06
3.781890945472736121e+01 6.573736323608692272e-06
3.871935967983991844e+01 5.849997634218389228e-06
3.961980990495247568e+01 4.831449499140126471e-06
4.052026013006503291e+01 3.936213565137809377e-06
4.142071035517759015e+01 3.272916200975651023e-06
4.232116058029014027e+01 2.808423154811821791e-06
4.322161080540269751e+01 2.486676834831909472e-06
4.412206103051525474e+01 2.262897054257951259e-06
4.502251125562781198e+01 2.106541601771116031e-06
4.592296148074036921e+01 1.997722560827937483e-06
4.682341170585292645e+01 1.923659033788219050e-06
4.772386193096548368e+01 1.876215526479063119e-06
4.862431215607803381e+01 1.850360052777913825e-06
4.952476238119059104e+01 1.843250245778725914e-06
5.042521260630314828e+01 1.853736941526925004e-06
5.132566283141570551e+01 1.882165227593973089e-06
5.222611305652826275e+01 1.930424533539759175e-06
5.312656328164081998e+01 2.002259815150554072e-06
5.402701350675337721e+01 2.103918614887301169e-06
5.492746373186592734e+01 2.245284313392526583e-06
5.582791395697848458e+01 2.441724925005874545e-06
5.672836418209104181e+01 2.716865831197873692e-06
5.762881440720359905e+01 3.105890637240653927e-06
5.852926463231615628e+01 3.656049451144215980e-06
5.942971485742871351e+01 4.411497877662886983e-06
6.033016508254127075e+01 5.351261815740823474e-06
6.123061530765382088e+01 6.255850927888715517e-06
6.213106553276637811e+01 6.656983688782700876e-06
6.303151575787893535e+01 6.279893602426334642e-06
6.393196598299149258e+01 5.470344270070502607e-06
6.483241620810404982e+01 4.709142656609723207e-06
6.573286643321659994e+01 4.196970733371440292e-06
6.663331665832916428e+01 3.949923847840361584e-06
6.753376688344171441e+01 3.937411831384616508e-06
6.843421710855427875e+01 4.114450361338968172e-06
6.933466733366682888e+01 4.393473745327668236e-06
7.023511755877939322e+01 4.667945570804659010e-06
7.113556778389194335e+01 4.960704114497054278e-06
7.203601800900449348e+01 5.424780374957478726e-06
7.293646823411705782e+01 6.111455680403401995e-06
7.383691845922960795e+01 6.759842955211864247e-06
7.473736868434217229e+01 6.838467902756132411e-06
7.563781890945472242e+01 6.153716630648722656e-06
7.653826913456728676e+01 5.132940745795332927e-06
7.743871935967983688e+01 4.206484080798643796e-06
7.833916958479238701e+01 3.505997659209303594e-06
7.923961980990495135e+01 3.006807390480394390e-06
8.014007003501750148e+01 2.653902639747551950e-06
8.104052026013006582e+01 2.401583270063191721e-06
8.194097048524261595e+01 2.218134966793106580e-06
8.284142071035518029e+01 2.082585830782499443e-06
8.374187093546773042e+01 1.981144617244514626e-06
8.464232116058028055e+01 1.904652824862715894e-06
8.554277138569284489e+01 1.846942588329861269e-06
8.644322161080539502e+01 1.803808183573535462e-06
8.734367183591795936e+01 1.772363775257159791e-06
8.824412206103050949e+01 1.750640738424634757e-06
8.914457228614307382e+01 1.737335369755436023e-06
9.004502251125562395e+01 1.731654066287605276e-06
9.094547273636817408e+01 1.733225397484771879e-06
9.184592296148073842e+01 1.742062716242982282e-06
9.274637318659328855e+01 1.758570922037001324e-06
9.364682341170585289e+01 1.783599385402637273e-06
9.454727363681840302e+01 1.818552084430113250e-06
9.544772386193096736e+01 1.865578088144384925e-06
9.634817408704351749e+01 1.927883809890228056e-06
9.724862431215606762e+01 2.010237130637775626e-06
9.814907453726863196e+01 2.119776013213817516e-06
9.904952476238118209e+01 2.267282052495380009e-06
9.994997498749374643e+01 2.469061013992541909e-06
1.008504252126062966e+02 2.749150948711343584e-06
1.017508754377188609e+02 3.139462250408320953e-06
1.026513256628314110e+02 3.667915297946582160e-06
1.035517758879439612e+02 4.309019852741010012e-06
1.044522261130565255e+02 4.891477222453005342e-06
1.053526763381690756e+02 5.144992109425483221e-06
1.062531265632816400e+02 5.054573661276315617e-06
1.071535767883941901e+02 4.925734708106314733e-06
1.080540270135067544e+02 5.018406496900437472e-06
1.089544772386193046e+02 5.398088684961649279e-06
1.098549274637318547e+02 5.917008797738272957e-06
1.107553776888444190e+02 6.180105489460070423e-06
1.116558279139569692e+02 5.857847366260227297e-06
1.125562781390695335e+02 5.135392296576590573e-06
1.134567283641820836e+02 4.408528977961912418e-06
1.143571785892946480e+02 3.866240215209741678e-06
1.152576288144071981e+02 3.524953151214622602e-06
1.161580790395197482e+02 3.354010195298536148e-06
1.170585292646323126e+02 3.328596657483205440e-06
1.179589794897448627e+02 3.439570375167903812e-06
1.188594297148574270e+02 3.686797824713226464e-06
1.197598799399699772e+02 4.067723764949970585e-06
1.206603301650825415e+02 4.585510530356948420e-06
1.215607803901950916e+02 5.249440008116637658e-06
1.224612306153076418e+02 5.941457136170487549e-06
1.233616808404202061e+02 6.280106498754768064e-06
1.242621310655327562e+02 5.956752949507823969e-06
1.251625812906453206e+02 5.203327819787532294e-06
1.260630315157578707e+02 4.442360736272420089e-06
1.269634817408704350e+02 3.864809566465508142e-06
1.278639319659829852e+02 3.481359959651159911e-06
1.287643821910955353e+02 3.253509874165766771e-06
1.296648324162080996e+02 3.146705147436404096e-06
1.305652826413206640e+02 3.141319874778477687e-06
1.314657328664331999e+02 3.232774492064494357e-06
1.323661830915457642e+02 3.431257859393849354e-06
1.332666333166583286e+02 3.763492371786666190e-06
1.341670835417708929e+02 4.275906851466148042e-06
1.350675337668834288e+02 5.033096126049718994e-06
1.359679839919959932e+02 6.087323281244097320e-06
1.368684342171085575e+02 7.357809730989436576e-06
1.377688844422210934e+02 8.409281317711721966e-06
1.386693346673336578e+02 8.567722384080663826e-06
1.395697848924462221e+02 7.755502714033125772e-06
1.404702351175587864e+02 6.621115427491156469e-06
1.413706853426713224e+02 5.684742391982185636e-06
1.422711355677838867e+02 5.079197352977562560e-06
1.431715857928964510e+02 4.748303683052985981e-06
1.440720360180089870e+02 4.590442419361775345e-06
1.449724862431215513e+02 4.555638411638602440e-06
1.458729364682341156e+02 4.685634212257324046e-06
1.467733866933466800e+02 5.057760198543967018e-06
1.476738369184592159e+02 5.747781684635515581e-06
1.485742871435717802e+02 6.807486564924275162e-06
1.494747373686843446e+02 8.142471374186849639e-06
1.503751875937968805e+02 9.259771007978967030e-06
1.512756378189094448e+02 9.367212207670184954e-06
1.521760880440220092e+02 8.320455983787698601e-06
1.530765382691345735e+02 6.839891255794341229e-06
1.539769884942471094e+02 5.531381354997149219e-06
1.548774387193596738e+02 4.554758706522504047e-06
1.557778889444722381e+02 3.863833695264869856e-06
1.566783391695847740e+02 3.378378523725353531e-06
1.575787893946973384e+02 3.033960879641671242e-06
1.584792396198099027e+02 2.786440995504939493e-06
1.593796898449224670e+02 2.606894985921344309e-06
1.602801400700350030e+02 2.476531415952054504e-06
1.611805902951475673e+02 2.383142547131564087e-06
1.620810405202601316e+02 2.318860011580449060e-06
1.629814907453726676e+02 2.278794813637822825e-06
1.638819409704852319e+02 2.260253027054849779e-06
1.647823911955977962e+02 2.262343142734425776e-06
1.656828414207103606e+02 2.285885782699727448e-06
1.665832916458228965e+02 2.333610131134600730e-06
1.674837418709354608e+02 2.410689106507357206e-06
1.683841920960480252e+02 2.525735407319319164e-06
1.692846423211605611e+02 2.692428954799716886e-06
1.701850925462731254e+02 2.931809388831836114e-06
1.710855427713856898e+02 3.274238753150732265e-06
1.719859929964982541e+02 3.755661387584303765e-06
1.728864432216107900e+02 4.389711080688856365e-06
1.737868934467233544e+02 5.084084639837588557e-06
1.746873436718359187e+02 5.562306255736111882e-06
1.755877938969484546e+02 5.588709243979115163e-06
1.764882441220610190e+02 5.331502615880375095e-06
1.773886943471735833e+02 5.131809860369293151e-06
1.782891445722861476e+02 5.154404037012898907e-06
1.791895947973986836e+02 5.422433154173561865e-06
1.800900450225112479e+02 5.965262785483348637e-06
1.809904952476238122e+02 6.801787940373941878e-06
1.818909454727363482e+02 7.717924105992593787e-06
1.827913956978489125e+02 8.130490424906875306e-06
1.836918459229614768e+02 7.596072461041486772e-06
1.845922961480740412e+02 6.443235316903236322e-06
1.854927463731865771e+02 5.267937916390874258e-06
1.863931965982991414e+02 4.340118647137083545e-06
1.872936468234117058e+02 3.671039394238203506e-06
1.881940970485242417e+02 3.198462841687715523e-06
1.890945472736368060e+02 2.862404447132774155e-06
1.899949974987493704e+02 2.619632702819836963e-06
1.908954477238619347e+02 2.441334266315622926e-06
1.917958979489744706e+02 2.308637868012251432e-06
1.926963481740870350e+02 2.209146577653087843e-06
1.935967983991995993e+02 2.134659751431230695e-06
1.944972486243121352e+02 2.079751787744992260e-06
1.953976988494246996e+02 2.040905484940709503e-06
1.962981490745372639e+02 2.016000665549026034e-06
1.971985992996498283e+02 2.004041774011961714e-06
1.980990495247623642e+02 2.005066230738939026e-06
1.989994997498749285e+02 2.020218658020036428e-06
1.998999499749874929e+02 2.052015333146334297e-06
2.008004002001000288e+02 2.104866508273502293e-06
2.017008504252125931e+02 2.185970776660989560e-06
2.026013006503251574e+02 2.306703877009292227e-06
2.035017508754377218e+02 2.484380008837559934e-06
2.044022011005502577e+02 2.742909429110661713e-06
2.053026513256628220e+02 3.105711953093743067e-06
2.062031015507753864e+02 3.561455881855772696e-06
2.071035517758879223e+02 3.985087346399172554e-06
2.080040020010004866e+02 4.125203526062966940e-06
2.089044522261130510e+02 3.873408033396719599e-06
2.098049024512256153e+02 3.431643521014544935e-06
2.107053526763381512e+02 3.024068718596570183e-06
2.116058029014507156e+02 2.728882454272178284e-06
2.125062531265632799e+02 2.542807057112798221e-06
2.134067033516758158e+02 2.446700006141110640e-06
2.143071535767883802e+02 2.427032052613656763e-06
2.152076038019009445e+02 2.475071337401746377e-06
2.161080540270135089e+02 2.570321693483369943e-06
2.170085042521260448e+02 2.651358996468376666e-06
2.179089544772386091e+02 2.630060910621615351e-06
2.188094047023511735e+02 2.494738560009604217e-06
2.197098549274637094e+02 2.323388221685008680e-06
2.206103051525762737e+02 2.177440908040342333e-06
2.215107553776888381e+02 2.071488400980165611e-06
2.224112056028014024e+02 1.999698076288173210e-06
2.233116558279139383e+02 1.953358807483770139e-06
2.242121060530265027e+02 1.925773048165136601e-06
2.251125562781390670e+02 1.912629960210174664e-06
2.260130065032516029e+02 1.911478245875349683e-06
2.269134567283641672e+02 1.921251341742534197e-06
2.278139069534767316e+02 1.942002351084157333e-06
2.287143571785892959e+02 1.974841896268673414e-06
2.296148074037018318e+02 2.022069996562289361e-06
2.305152576288143962e+02 2.087527958792824437e-06
2.314157078539269605e+02 2.177238988697242861e-06
2.323161580790394964e+02 2.300431893924206117e-06
2.332166083041520608e+02 2.470944056796995394e-06
2.341170585292646251e+02 2.708374460163678824e-06
2.350175087543771895e+02 3.036227783801278268e-06
2.359179589794897254e+02 3.471365203258513189e-06
2.368184092046022897e+02 4.009862255790722530e-06
2.377188594297148541e+02 4.640614545250648713e-06
2.386193096548273900e+02 5.324879969354702789e-06
2.395197598799399543e+02 5.830282978805859294e-06
2.404202101050525187e+02 5.779726523754982998e-06
2.413206603301650830e+02 5.157458052606818686e-06
2.422211105552776189e+02 4.351723056408980516e-06
2.431215607803901833e+02 3.657862203825400106e-06
2.440220110055027476e+02 3.145526117320651072e-06
2.449224612306152835e+02 2.785917927082512231e-06
2.458229114557278479e+02 2.536199311699714967e-06
2.467233616808404122e+02 2.363173963437419441e-06
2.476238119059529765e+02 2.244996732915123070e-06
2.485242621310655124e+02 2.168125840374152423e-06
2.494247123561780768e+02 2.123123438713390788e-06
2.503251625812906411e+02 2.098137257658294758e-06
2.512256128064031770e+02 2.072569543690320436e-06
2.521260630315157414e+02 2.027484447416942312e-06
2.530265132566283057e+02 1.967383651704618003e-06
2.539269634817408701e+02 1.909482877479032843e-06
2.548274137068534060e+02 1.862565682817090321e-06
2.557278639319659703e+02 1.826906752231035610e-06
2.566283141570785347e+02 1.800161688924983989e-06
2.575287643821910706e+02 1.780035117308049913e-06
2.584292146073036633e+02 1.764833171421462177e-06
2.593296648324161993e+02 1.753401703718714180e-06
2.602301150575287352e+02 1.744978160762558981e-06
2.611305652826413279e+02 1.739076424740670203e-06
2.620310155077538639e+02 1.735415681002571553e-06
2.629314657328663998e+02 1.733885321187373685e-06
2.638319159579789925e+02 1.734539768858313016e-06
2.647323661830915285e+02 1.737622927077966783e-06
2.656328164082040644e+02 1.743628264840792385e-06
2.665332666333166571e+02 1.753405240571062804e-06
2.674337168584291931e+02 1.768315283675883306e-06
2.683341670835417858e+02 1.790374613012171190e-06
2.692346173086543217e+02 1.822031320661576130e-06
2.701350675337668577e+02 1.864318588189453286e-06
2.710355177588794504e+02 1.910956295668499539e-06
2.719359679839919863e+02 1.941480701750297278e-06
2.728364182091045222e+02 1.934947134503513632e-06
2.737368684342171150e+02 1.899340737683873688e-06
2.746373186593296509e+02 1.859298224877738364e-06
2.755377688844421868e+02 1.828291496065430750e-06
2.764382191095547796e+02 1.808115400765065632e-06
2.773386693346673155e+02 1.796733451993842174e-06
2.782391195597798514e+02 1.791954180394028475e-06
2.791395697848924442e+02 1.792259669536119869e-06
2.800400200100049801e+02 1.796788172648146617e-06
2.809404702351175729e+02 1.805182717430441793e-06
2.818409204602301088e+02 1.817445499829803811e-06
2.827413706853426447e+02 1.833738842639011597e-06
2.836418209104552375e+02 1.854063851787905826e-06
2.845422711355677734e+02 1.878288401814922394e-06
2.854427213606803093e+02 1.907355443698812757e-06
2.863431715857929021e+02 1.944058185527214045e-06
2.872436218109054380e+02 1.992165700233782625e-06
2.881440720360179739e+02 2.056291037142561258e-06
2.890445222611305667e+02 2.142937789682802176e-06
2.899449724862431026e+02 2.261941345838131742e-06
2.908454227113556385e+02 2.428131558315446516e-06
2.917458729364682313e+02 2.662443871183633907e-06
2.926463231615807672e+02 2.988482098758886805e-06
2.935467733866933600e+02 3.413409082464726661e-06
2.944472236118058959e+02 3.883342940909375487e-06
2.953476738369184318e+02 4.246467395246347159e-06
2.962481240620310246e+02 4.301046758068686308e-06
2.971485742871435605e+02 3.988659445445586534e-06
2.980490245122560964e+02 3.503931578733106185e-06
2.989494747373686891e+02 3.055945155760867507e-06
2.998499249624812251e+02 2.715780992216741737e-06
3.007503751875937610e+02 2.474257867272813556e-06
3.016508254127063537e+02 2.304762309626677231e-06
3.025512756378188897e+02 2.184555094504970298e-06
3.034517258629314256e+02 2.097699098808338954e-06
3.043521760880440183e+02 2.033678515150313404e-06
3.052526263131565543e+02 1.985682085075197491e-06
3.061530765382691470e+02 1.949215157696898198e-06
3.070535267633816829e+02 1.921218943164358403e-06
3.079539769884942189e+02 1.899576197936045246e-06
3.088544272136068116e+02 1.882809870593694513e-06
3.097548774387193475e+02 1.869888864779247368e-06
3.106553276638318835e+02 1.860104924658805135e-06
3.115557778889444762e+02 1.852997018461993228e-06
3.124562281140570121e+02 1.848298321265350327e-06
3.133566783391695481e+02 1.845851959341846921e-06
3.142571285642821408e+02 1.845355939862106627e-06
3.151575787893946767e+02 1.845785620302352970e-06
3.160580290145072127e+02 1.845182450479216940e-06
3.169584792396198054e+02 1.842466290089367954e-06
3.178589294647323413e+02 1.838890163947643607e-06
3.187593796898449341e+02 1.836073422126551621e-06
3.196598299149574700e+02 1.834595314587790386e-06
3.205602801400700059e+02 1.834400973006057765e-06
3.214607303651825987e+02 1.835301520788545783e-06
3.223611805902951346e+02 1.837151432394722822e-06
3.232616308154076705e+02 1.839880422474458389e-06
3.241620810405202633e+02 1.843492482762554384e-06
3.250625312656327992e+02 1.848067487348012215e-06
3.259629814907453351e+02 1.853775189557821633e-06
3.268634317158579279e+02 1.860906645291922823e-06
3.277638819409704638e+02 1.869927825190423503e-06
3.286643321660829997e+02 1.881552789178613059e-06
3.295647823911955925e+02 1.896788419117438381e-06
3.304652326163081284e+02 1.916720597458033776e-06
3.313656828414207212e+02 1.941315771266174685e-06
3.322661330665332571e+02 1.966294529014548298e-06
3.331665832916457930e+02 1.981457284027160592e-06
3.340670335167583858e+02 1.980408758744514781e-06
3.349674837418709217e+02 1.970328474002631478e-06
3.358679339669834576e+02 1.961543324526127118e-06
3.367683841920960504e+02 1.958395037997842356e-06
3.376688344172085863e+02 1.961228079736041415e-06
3.385692846423211222e+02 1.969479879207016456e-06
3.394697348674337150e+02 1.982871875307679470e-06
3.403701850925462509e+02 2.001694092256756009e-06
3.412706353176587868e+02 2.026889891272226107e-06
3.421710855427713796e+02 2.060144301882438985e-06
3.430715357678839155e+02 2.103895015702600392e-06
3.439719859929965082e+02 2.160776628070148781e-06
3.448724362181090441e+02 2.231503131381177710e-06
3.457728864432215801e+02 2.312415697970600825e-06
3.466733366683341728e+02 2.401905024968933953e-06
3.475737868934467087e+02 2.514564123100960411e-06
3.484742371185592447e+02 2.677757772607443466e-06
3.493746873436718374e+02 2.917709357332682767e-06
3.502751375687843733e+02 3.244319944663314398e-06
3.511755877938969093e+02 3.607302766126056969e-06
3.520760380190095020e+02 3.841499589878884429e-06
3.529764882441220379e+02 3.774525876559342740e-06
3.538769384692345739e+02 3.466232779382824116e-06
3.547773886943471666e+02 3.116359381803869702e-06
3.556778389194597025e+02 2.837112254611356719e-06
3.565782891445722953e+02 2.645322950599527730e-06
3.574787393696848312e+02 2.526338693816552810e-06
3.583791895947973671e+02 2.464442691539303368e-06
3.592796398199099599e+02 2.448081933765439864e-06
3.601800900450224958e+02 2.463029790411533319e-06
3.610805402701350317e+02 2.479124695024911257e-06
3.619809904952476245e+02 2.456066816075608689e-06
3.628814407203601604e+02 2.387669666197522893e-06
3.637818909454726963e+02 2.306797156609440990e-06
3.646823411705852891e+02 2.239252681511746471e-06
3.655827913956978250e+02 2.190896696677679234e-06
3.664832416208103609e+02 2.159063045620717066e-06
3.673836918459229537e+02 2.140106286115995436e-06
3.682841420710354896e+02 2.131550766733198891e-06
3.691845922961480824e+02 2.132355845947473194e-06
3.700850425212606183e+02 2.142825689200926337e-06
3.709854927463731542e+02 2.164390103348971827e-06
3.718859429714857470e+02 2.198563297434807592e-06
3.727863931965982829e+02 2.242996680391473834e-06
3.736868434217108188e+02 2.283407039796719021e-06
3.745872936468234116e+02 2.294668381558716693e-06
3.754877438719359475e+02 2.269537129385331746e-06
3.763881940970484834e+02 2.229803593507639159e-06
3.772886443221610762e+02 2.196069643562946275e-06
3.781890945472736121e+02 2.174695154423148552e-06
3.790895447723861480e+02 2.165001388008696464e-06
3.799899949974987408e+02 2.165209181375982458e-06
3.808904452226112767e+02 2.174367607535626164e-06
3.817908954477238694e+02 2.192765203520227814e-06
3.826913456728364054e+02 2.222102368705750803e-06
3.835917958979489413e+02 2.265780935209409369e-06
3.844922461230615340e+02 2.329192565629918604e-06
3.853926963481740700e+02 2.418999603759471324e-06
3.862931465732866059e+02 2.537842606229198906e-06
3.871935967983991986e+02 2.667730030743876381e-06
3.880940470235117346e+02 2.751296601165812713e-06
3.889944972486242705e+02 2.731265733034843234e-06
3.898949474737368632e+02 2.631368843684827060e-06
3.907953976988493991e+02 2.520071732424188352e-06
3.916958479239619351e+02 2.434306836793807887e-06
3.925962981490745278e+02 2.379110218691371820e-06
3.934967483741870637e+02 2.349388976147732856e-06
3.943971985992996565e+02 2.340064390751398740e-06
3.952976488244121924e+02 2.348509402472332735e-06
3.961980990495247283e+02 2.374761509476476930e-06
3.970985492746373211e+02 2.421253945964959967e-06
3.979989994997498570e+02 2.491527425978230780e-06
3.988994497248623929e+02 2.584890851288435018e-06
3.997998999499749857e+02 2.683203923304596365e-06
4.007003501750875216e+02 2.744702867605616359e-06
4.016008004002000575e+02 2.745862079812276667e-06
4.025012506253126503e+02 2.720616134130845121e-06
4.034017008504251862e+02 2.716169700828021001e-06
4.043021510755377221e+02 2.757136312076117603e-06
4.052026013006503149e+02 2.854358240126192946e-06
4.061030515257628508e+02 3.013484133979887914e-06
4.070035017508754436e+02 3.224066737497947918e-06
4.079039519759879795e+02 3.435669207639715057e-06
4.088044022011005154e+02 3.580747256135112109e-06
4.097048524262131082e+02 3.659415276247154894e-06
4.106053026513256441e+02 3.712793627087734948e-06
4.115057528764381800e+02 3.745881274384681752e-06
4.124062031015507728e+02 3.736986229970329484e-06
4.133066533266633087e+02 3.630883981330180702e-06
4.142071035517758446e+02 3.412039233642171275e-06
4.151075537768884374e+02 3.160895257329907622e-06
4.160080040020009733e+02 2.951601111136633343e-06
4.169084542271135092e+02 2.802939692588766539e-06
4.178089044522261020e+02 2.706869102274228839e-06
4.187093546773386379e+02 2.652014062270226969e-06
4.196098049024512306e+02 2.630909607744027278e-06
4.205102551275637666e+02 2.640946242298075362e-06
4.214107053526763025e+02 2.683664784864354322e-06
4.223111555777888952e+02 2.761982004380788668e-06
4.232116058029014312e+02 2.870412304466603589e-06
4.241120560280139671e+02 2.974099739114438005e-06
4.250125062531265598e+02 3.007196164385386269e-06
4.259129564782390958e+02 2.944318619173709315e-06
4.268134067033516317e+02 2.839548607816260996e-06
4.277138569284642244e+02 2.750277917134761667e-06
4.286143071535767604e+02 2.696778048479894297e-06
4.295147573786892963e+02 2.679901404227474900e-06
4.304152076038018890e+02 2.698045015908476894e-06
4.313156578289144250e+02 2.753236800872141374e-06
4.322161080540270177e+02 2.852212957989285223e-06
4.331165582791395536e+02 3.003294739497807384e-06
4.340170085042520896e+02 3.201807448038162125e-06
4.349174587293646823e+02 3.395210858109232431e-06
4.358179089544772182e+02 3.471261970666206258e-06
4.367183591795897541e+02 3.371249100179403517e-06
4.376188094047023469e+02 3.178960723958147478e-06
4.385192596298148828e+02 2.998712239758316634e-06
4.394197098549274187e+02 2.869738312467619664e-06
4.403201600800400115e+02 2.791917291644456596e-06
4.412206103051525474e+02 2.756857043161439766e-06
4.421210605302650833e+02 2.759109785577684731e-06
4.430215107553776761e+02 2.798209790189430336e-06
4.439219609804902120e+02 2.877079459479267839e-06
4.448224112056028048e+02 2.994491922247888857e-06
4.457228614307153407e+02 3.124864417267082537e-06
4.466233116558278766e+02 3.200933054639261665e-06
4.475237618809404694e+02 3.167652592484943036e-06
4.484242121060530053e+02 3.062368857760377772e-06
4.493246623311655412e+02 2.959327436427112744e-06
4.502251125562781340e+02 2.895495509282968900e-06
4.511255627813906699e+02 2.877819655650844913e-06
4.520260130065032058e+02 2.906428544379161195e-06
4.529264632316157986e+02 2.984129400834547544e-06
4.538269134567283345e+02 3.114994291624446212e-06
4.547273636818408704e+02 3.289366241770907180e-06
4.556278139069534632e+02 3.451640221276400632e-06
4.565282641320659991e+02 3.501633282815006516e-06
4.574287143571785919e+02 3.406958623606111886e-06
4.583291645822911278e+02 3.253830382849422821e-06
4.592296148074036637e+02 3.128266609065281333e-06
4.601300650325162565e+02 3.060133159032361573e-06
4.610305152576287924e+02 3.050432073046496849e-06
4.619309654827413283e+02 3.092328702022019634e-06
4.628314157078539210e+02 3.172030773679653738e-06
4.637318659329664570e+02 3.270684841702223182e-06
4.646323161580789929e+02 3.384260504853017896e-06
4.655327663831915856e+02 3.514660752060075735e-06
4.664332166083041216e+02 3.627184534527693255e-06
4.673336668334167143e+02 3.677814958299136900e-06
4.682341170585292502e+02 3.660851197733255527e-06
4.691345672836417862e+02 3.573325565536043572e-06
4.700350175087543789e+02 3.436020174470386964e-06
4.709354677338669148e+02 3.311937372538833702e-06
4.718359179589794508e+02 3.246536560279268266e-06
4.727363681840920435e+02 3.249317428054241948e-06
4.736368184092045794e+02 3.301067383370472718e-06
4.745372686343171154e+02 3.345159270934105417e-06
4.754377188594297081e+02 3.311062847370324454e-06
4.763381690845422440e+02 3.197763338000501338e-06
4.772386193096547800e+02 3.068391157910123062e-06
4.781390695347673727e+02 2.967105970456973630e-06
4.790395197598799086e+02 2.903716230804484411e-06
4.799399699849925014e+02 2.875259105679289099e-06
4.808404202101050373e+02 2.878360667346185739e-06
4.817408704352175732e+02 2.910986237672610338e-06
4.826413206603301660e+02 2.966432971468839458e-06
4.835417708854427019e+02 3.020336769485033073e-06
4.844422211105552378e+02 3.032669613174691211e-06
4.853426713356678306e+02 2.992944324711173124e-06
4.862431215607803665e+02 2.936412410499681545e-06
4.871435717858929024e+02 2.896652277291908030e-06
4.880440220110054952e+02 2.886009066175699667e-06
4.889444722361180311e+02 2.906189929733161662e-06
4.898449224612305670e+02 2.953162316451712128e-06
4.907453726863431598e+02 3.008856331431081950e-06
4.916458229114556957e+02 3.034629364605471782e-06
4.925462731365682885e+02 3.004444595667735628e-06
4.934467233616808244e+02 2.941760019378059036e-06
4.943471735867933603e+02 2.883781197329644160e-06
4.952476238119059531e+02 2.846946532428036697e-06
4.961480740370184890e+02 2.833224296978895093e-06
4.970485242621310249e+02 2.840879232220345700e-06
4.979489744872436177e+02 2.866402012275974224e-06
4.988494247123561536e+02 2.899098624984580931e-06
4.997498749374686895e+02 2.917323003461924879e-06
5.006503251625812823e+02 2.907191690765593288e-06
5.015507753876938182e+02 2.882770191574793305e-06
5.024512256128063541e+02 2.865834170229143819e-06
5.033516758379189469e+02 2.866687994949952829e-06
5.042521260630314828e+02 2.886154638713009871e-06
5.051525762881440755e+02 2.916613872381920041e-06
5.060530265132566115e+02 2.938425507728634247e-06
5.069534767383691474e+02 2.932390536637842121e-06
5.078539269634817401e+02 2.905100161655265524e-06
5.087543771885942760e+02 2.877972313860182771e-06
5.096548274137068120e+02 2.863193467423344190e-06
5.105552776388194047e+02 2.863114600909386619e-06
5.114557278639319406e+02 2.875847200237694565e-06
5.123561780890445334e+02 2.895453511173403825e-06
5.132566283141570693e+02 2.911277392326992963e-06
5.141570785392696052e+02 2.917422149342537154e-06
5.150575287643821412e+02 2.921487507340511056e-06
5.159579789894946771e+02 2.934192445627354337e-06
5.168584292146073267e+02 2.960089609875289268e-06
5.177588794397198626e+02 2.996813320285253041e-06
5.186593296648323985e+02 3.035195042705841643e-06
5.195597798899449344e+02 3.067856391671494032e-06
5.204602301150574704e+02 3.103384546247890822e-06
5.213606803401700063e+02 3.159850174257790148e-06
5.222611305652826559e+02 3.251892352876011155e-06
5.231615807903951918e+02 3.387057505097758241e-06
5.240620310155077277e+02 3.554202904406003798e-06
5.249624812406202636e+02 3.697601823487474997e-06
5.258629314657327996e+02 3.729790523317799866e-06
5.267633816908454492e+02 3.635040878271821111e-06
5.276638319159579851e+02 3.493777683421141341e-06
5.285642821410705210e+02 3.371865107206994963e-06
5.294647323661830569e+02 3.280801917659444864e-06
5.303651825912955928e+02 3.211849510627637571e-06
5.312656328164081287e+02 3.161794869546280636e-06
5.321660830415207784e+02 3.130647339041961192e-06
5.330665332666333143e+02 3.116198009085734765e-06
5.339669834917458502e+02 3.114947464023950534e-06
5.348674337168583861e+02 3.124293978858809945e-06
5.357678839419709220e+02 3.143465554655114593e-06
5.366683341670835716e+02 3.171060597156784650e-06
5.375687843921961075e+02 3.201955320495942162e-06
5.384692346173086435e+02 3.230820377172860114e-06
5.393696848424211794e+02 3.260721131336486026e-06
5.402701350675337153e+02 3.300472113758932152e-06
5.411705852926462512e+02 3.356913669129979246e-06
5.420710355177589008e+02 3.434310769123106375e-06
5.429714857428714367e+02 3.535149376675053714e-06
5.438719359679839727e+02 3.659187182384911180e-06
5.447723861930965086e+02 3.808281265213853944e-06
5.456728364182090445e+02 3.998814930049562751e-06
5.465732866433215804e+02 4.260176699619054624e-06
5.474737368684342300e+02 4.621272342209223021e-06
5.483741870935467659e+02 5.100323018462355014e-06
5.492746373186593019e+02 5.691506603345126937e-06
5.501750875437718378e+02 6.320785675935955661e-06
5.510755377688843737e+02 6.801437735985138272e-06
5.519759879939970233e+02 6.990251334243946843e-06
5.528764382191095592e+02 6.944874046240121422e-06
5.537768884442220951e+02 6.757992241506653230e-06
5.546773386693346310e+02 6.487615853594133638e-06
5.555777888944471670e+02 6.182629740128047444e-06
5.564782391195597029e+02 5.905850284580332062e-06
5.573786893446723525e+02 5.741924702673100725e-06
5.582791395697848884e+02 5.707307423544994451e-06
5.591795897948974243e+02 5.701528755829719360e-06
5.600800400200099602e+02 5.586235270012626952e-06
5.609804902451224962e+02 5.374270074685616438e-06
5.618809404702351458e+02 5.194983111346969746e-06
5.627813906953476817e+02 5.109607978088570949e-06
5.636818409204602176e+02 5.072806271256292198e-06
5.645822911455727535e+02 5.000356457249161871e-06
5.654827413706852894e+02 4.875368420712403995e-06
5.663831915957978254e+02 4.769216092902191248e-06
5.672836418209104750e+02 4.756277875249042925e-06
5.681840920460230109e+02 4.867175783740256497e-06
5.690845422711355468e+02 5.086125385849618480e-06
5.699849924962480827e+02 5.326289230619648902e-06
5.708854427213606186e+02 5.452450680962732270e-06
5.717858929464731546e+02 5.443934645727433463e-06
5.726863431715858042e+02 5.426061022055035838e-06
5.735867933966983401e+02 5.469126698198485169e-06
5.744872436218108760e+02 5.494902573186534886e-06
5.753876938469234119e+02 5.404932673555725566e-06
5.762881440720359478e+02 5.244410325475661730e-06
5.771885942971485974e+02 5.128888348306474109e-06
5.780890445222611334e+02 5.127930116650489160e-06
5.789894947473736693e+02 5.233558383883289006e-06
5.798899449724862052e+02 5.341878586636872724e-06
5.807903951975987411e+02 5.320853324174340388e-06
5.816908454227112770e+02 5.183968510319768655e-06
5.825912956478239266e+02 5.064606313771375222e-06
5.834917458729364625e+02 5.044403117243990928e-06
5.843921960980489985e+02 5.095622553769891050e-06
5.852926463231615344e+02 5.100236226258844596e-06
5.861930965482740703e+02 4.976333331396587601e-06
5.870935467733867199e+02 4.793516806754561632e-06
5.879939969984992558e+02 4.658213044982677675e-06
5.888944472236117917e+02 4.595998765144844527e-06
5.897948974487243277e+02 4.552699177086651817e-06
5.906953476738368636e+02 4.460751796086879932e-06
5.915957978989493995e+02 4.328062295230405064e-06
5.924962481240620491e+02 4.210200476434458842e-06
5.933966983491745850e+02 4.137906370597285111e-06
5.942971485742871209e+02 4.118095861871709271e-06
5.951975987993996569e+02 4.148105998698715877e-06
5.960980490245121928e+02 4.205507663958629712e-06
5.969984992496247287e+02 4.240248424082489973e-06
5.978989494747373783e+02 4.218906388764455967e-06
5.987993996998499142e+02 4.173993994877547519e-06
5.996998499249624501e+02 4.158881214509501268e-06
6.006003001500749860e+02 4.202309515030623082e-06
6.015007503751875220e+02 4.311756308176732007e-06
6.024012006003001716e+02 4.471244033078935450e-06
6.033016508254127075e+02 4.619294549982313847e-06
6.042021010505252434e+02 4.674025117446905602e-06
6.051025512756377793e+02 4.642113414805895678e-06
6.060030015007503152e+02 4.614881836279709157e-06
6.069034517258628512e+02 4.645270899218035403e-06
6.078039019509755008e+02 4.696548651564722194e-06
6.087043521760880367e+02 4.676159238311819040e-06
6.096048024012005726e+02 4.554723737763079079e-06
6.105052526263131085e+02 4.406186739144229931e-06
6.114057028514256444e+02 4.301721495978070194e-06
6.123061530765382940e+02 4.265400758981306577e-06
6.132066033016508300e+02 4.295729759172543436e-06
6.141070535267633659e+02 4.372865244732017533e-06
6.150075037518759018e+02 4.442648288456983881e-06
6.159079539769884377e+02 4.433085590063877710e-06
6.168084042021009736e+02 4.339199855010116857e-06
6.177088544272136232e+02 4.226536084179411877e-06
6.186093046523261592e+02 4.144773048076636327e-06
6.195097548774386951e+02 4.107400759244500878e-06
6.204102051025512310e+02 4.114139003794473126e-06
6.213106553276637669e+02 4.165170410463475649e-06
6.222111055527763028e+02 4.264660906792489396e-06
6.231115557778889524e+02 4.416804675646824768e-06
6.240120060030014884e+02 4.609639382410853977e-06
6.249124562281140243e+02 4.790206910460587901e-06
6.258129064532265602e+02 4.891511169462670416e-06
6.267133566783390961e+02 4.933413042467376415e-06
6.276138069034517457e+02 5.013101538434617460e-06
6.285142571285642816e+02 5.196712489861057729e-06
6.294147073536768175e+02 5.466028969702902035e-06
6.303151575787893535e+02 5.685208574715615130e-06
6.312156078039018894e+02 5.669916866228630820e-06
6.321160580290144253e+02 5.420799672885186193e-06
6.330165082541270749e+02 5.107041470951026843e-06
6.339169584792396108e+02 4.830421644002313783e-06
6.348174087043521467e+02 4.599209952008506374e-06
6.357178589294646827e+02 4.411763220546945097e-06
6.366183091545772186e+02 4.271873907312645817e-06
6.375187593796898682e+02 4.175556927084166718e-06
6.384192096048024041e+02 4.114157841574679024e-06
6.393196598299149400e+02 4.079310402402679774e-06
6.402201100550274759e+02 4.062953799484437319e-06
6.411205602801400119e+02 4.056006600404521775e-06
6.420210105052525478e+02 4.052701986146573517e-06
6.429214607303651974e+02 4.056280724718525749e-06
6.438219109554777333e+02 4.073947135265331864e-06
6.447223611805902692e+02 4.111515783185012869e-06
6.456228114057028051e+02 4.174044556659738322e-06
6.465232616308153411e+02 4.265225216325600565e-06
6.474237118559278770e+02 4.379242139293593486e-06
6.483241620810405266e+02 4.486789379834743010e-06
6.492246123061530625e+02 4.549274849648514192e-06
6.501250625312655984e+02 4.575819364442787986e-06
6.510255127563781343e+02 4.617162446045642329e-06
6.519259629814906702e+02 4.696020626283744689e-06
6.528264132066033198e+02 4.771827971454390533e-06
6.537268634317158558e+02 4.765988047092009092e-06
6.546273136568283917e+02 4.662320893506747313e-06
6.555277638819409276e+02 4.528542975780806475e-06
6.564282141070534635e+02 4.421983847937343316e-06
6.573286643321659994e+02 4.358666653575795562e-06
6.582291145572786490e+02 4.336569250241868735e-06
6.591295647823911850e+02 4.351722434807175013e-06
6.600300150075037209e+02 4.401505531538400365e-06
6.609304652326162568e+02 4.479846824103354427e-06
6.618309154577287927e+02 4.562255496517885107e-06
6.627313656828414423e+02 4.598187481259445434e-06
6.636318159079539782e+02 4.559515487994638697e-06
6.645322661330665142e+02 4.482419933791913814e-06
6.654327163581790501e+02 4.414141691228584069e-06
6.663331665832915860e+02 4.373227789871200298e-06
6.672336168084041219e+02 4.360624296671039254e-06
6.681340670335167715e+02 4.373952004838434641e-06
6.690345172586293074e+02 4.412756120965183439e-06
6.699349674837418434e+02 4.479041888584539267e-06
6.708354177088543793e+02 4.574305284049318158e-06
6.717358679339669152e+02 4.690643034356613227e-06
6.726363181590794511e+02 4.801747333839350127e-06
6.735367683841921007e+02 4.881164490505946011e-06
6.744372186093046366e+02 4.933403801671705368e-06
6.753376688344171725e+02 4.987454813842509352e-06
6.762381190595297085e+02 5.084105155684724828e-06
6.771385692846422444e+02 5.259630718814677399e-06
6.780390195097548940e+02 5.526110270009776986e-06
6.789394697348674299e+02 5.840078662702774863e-06
6.798399199599799658e+02 6.073832404049312139e-06
6.807403701850925017e+02 6.121337421199696760e-06
6.816408204102050377e+02 6.051406321258221114e-06
6.825412706353175736e+02 5.970655190442134832e-06
6.834417208604302232e+02 5.853317209285522518e-06
6.843421710855427591e+02 5.640238233141311250e-06
6.852426213106552950e+02 5.380509535315520570e-06
6.861430715357678309e+02 5.157814925813574106e-06
6.870435217608803669e+02 5.004389548550104372e-06
6.879439719859930165e+02 4.915401027435322421e-06
6.888444222111055524e+02 4.872762889910056980e-06
6.897448724362180883e+02 4.850113150058193707e-06
6.906453226613306242e+02 4.823934227535425889e-06
6.915457728864431601e+02 4.795949555086670511e-06
6.924462231115556961e+02 4.784635832834321804e-06
6.933466733366683457e+02 4.802599269163976446e-06
6.942471235617808816e+02 4.853243701348637483e-06
6.951475737868934175e+02 4.931416656981297181e-06
6.960480240120059534e+02 5.023658942249512401e-06
6.969484742371184893e+02 5.123062256577689607e-06
6.978489244622311389e+02 5.230362583573688048e-06
6.987493746873436749e+02 5.310232399400721863e-06
6.996498249124562108e+02 5.296250960534252899e-06
7.005502751375687467e+02 5.188214158117937952e-06
7.014507253626812826e+02 5.057349169049637622e-06
7.023511755877938185e+02 4.954833767718475122e-06
7.032516258129064681e+02 4.892265474127264642e-06
7.041520760380190040e+02 4.865734567795205104e-06
7.050525262631315400e+02 4.870010388410632205e-06
7.059529764882440759e+02 4.901088989908196502e-06
7.068534267133566118e+02 4.952883324607311306e-06
7.077538769384691477e+02 5.009264917111046178e-06
7.086543271635817973e+02 5.039965106869304276e-06
7.095547773886943332e+02 5.028256680485237411e-06
7.104552276138068692e+02 4.996480820069153280e-06
7.113556778389194051e+02 4.974360513270901025e-06
7.122561280640319410e+02 4.974590049926582461e-06
7.131565782891445906e+02 4.999666627684380521e-06
7.140570285142571265e+02 5.050764453832524654e-06
7.149574787393696624e+02 5.130295492863002893e-06
7.158579289644821984e+02 5.239120456245232170e-06
7.167583791895947343e+02 5.368299942689726140e-06
7.176588294147072702e+02 5.490645294762244715e-06
7.185592796398199198e+02 5.567009573745982887e-06
7.194597298649324557e+02 5.586464041808113588e-06
7.203601800900449916e+02 5.593365116925373095e-06
7.212606303151575275e+02 5.640161882718709381e-06
7.221610805402700635e+02 5.755540357147974920e-06
7.230615307653827131e+02 5.952775357805631105e-06
7.239619809904952490e+02 6.226484470292248610e-06
7.248624312156077849e+02 6.515860325606448190e-06
7.257628814407203208e+02 6.685894749991932463e-06
7.266633316658328567e+02 6.658362420721386738e-06
7.275637818909453927e+02 6.534449188793685737e-06
7.284642321160580423e+02 6.454982740124449993e-06
7.293646823411705782e+02 6.486973578041694748e-06
7.302651325662831141e+02 6.654022881488901955e-06
7.311655827913956500e+02 6.979058889789173046e-06
7.320660330165081859e+02 7.498474167704174347e-06
7.329664832416207219e+02 8.246926015898347693e-06
7.338669334667333715e+02 9.189351479419794101e-06
7.347673836918459074e+02 1.008298453243365638e-05
7.356678339169584433e+02 1.044695180348740803e-05
7.365682841420709792e+02 1.003064067236032135e-05
7.374687343671835151e+02 9.205647370040175723e-06
7.383691845922961647e+02 8.446426671965162714e-06
7.392696348174087007e+02 7.915691871753952630e-06
7.401700850425212366e+02 7.549614596745776623e-06
7.410705352676337725e+02 7.234581275759713268e-06
7.419709854927463084e+02 6.940177827153407187e-06
7.428714357178588443e+02 6.694614203116899219e-06
7.437718859429714939e+02 6.511078689262722829e-06
7.446723361680840299e+02 6.390485820452283270e-06
7.455727863931965658e+02 6.330398880357211318e-06
7.464732366183091017e+02 6.325388187265461884e-06
7.473736868434216376e+02 6.371070946724032048e-06
7.482741370685342872e+02 6.467112844915734828e-06
7.491745872936468231e+02 6.618433102005295685e-06
7.500750375187593590e+02 6.836283440373386681e-06
7.509754877438718950e+02 7.140263592931260336e-06
7.518759379689844309e+02 7.561986135876090387e-06
7.527763881940969668e+02 8.151121555665153087e-06
7.536768384192096164e+02 8.984155722460866809e-06
7.545772886443221523e+02 1.017293457995446871e-05
7.554777388694346882e+02 1.185547558922951173e-05
7.563781890945472242e+02 1.410447619773914145e-05
7.572786393196597601e+02 1.661891239906593644e-05
7.581790895447722960e+02 1.831443845053148424e-05
7.590795397698849456e+02 1.795495059301065299e-05
7.599799899949974815e+02 1.584370718431815176e-05
7.608804402201100174e+02 1.335204371833092540e-05
7.617808904452225534e+02 1.129395613710575737e-05
7.626813406703350893e+02 9.797351638238696960e-06
7.635817908954477389e+02 8.747444725913407955e-06
7.644822411205602748e+02 8.010175373222426943e-06
7.653826913456728107e+02 7.484865531409115764e-06
7.662831415707853466e+02 7.103717990472267131e-06
7.671835917958978825e+02 6.822261384408508310e-06
7.680840420210104185e+02 6.611233203552958109e-06
7.689844922461230681e+02 6.451102223228067929e-06
7.698849424712356040e+02 6.328598945342922713e-06
7.707853926963481399e+02 6.234548381879090010e-06
7.716858429214606758e+02 6.162510376001189470e-06
7.725862931465732117e+02 6.107917699010433263e-06
7.734867433716858613e+02 6.067524608647432430e-06
7.743871935967983973e+02 6.039052848006100725e-06
7.752876438219109332e+02 6.020963354573512755e-06
7.761880940470234691e+02 6.012295362553521553e-06
7.770885442721360050e+02 6.012502611655441587e-06
7.779889944972485409e+02 6.021267100389288653e-06
7.788894447223611905e+02 6.038641719101027647e-06
7.797898949474737265e+02 6.065869453199075468e-06
7.806903451725862624e+02 6.105778030820926735e-06
7.815907953976987983e+02 6.162539248106604963e-06
7.824912456228113342e+02 6.242191243107409524e-06
7.833916958479238701e+02 6.353966285173003994e-06
7.842921460730365197e+02 6.511988877532343124e-06
7.851925962981490557e+02 6.736525931682523844e-06
7.860930465232615916e+02 7.050751344910712891e-06
7.869934967483741275e+02 7.459297597183380472e-06
7.878939469734866634e+02 7.886335354248396134e-06
7.887943971985993130e+02 8.122956172612993327e-06
7.896948474237118489e+02 7.997771069958176251e-06
7.905952976488243849e+02 7.624185713728365266e-06
7.914957478739369208e+02 7.224179612112791287e-06
7.923961980990494567e+02 6.903063700212676483e-06
7.932966483241619926e+02 6.672060672627928069e-06
7.941970985492746422e+02 6.512574484441980412e-06
7.950975487743871781e+02 6.403740634155202698e-06
7.959979989994997140e+02 6.329592312124632842e-06
7.968984492246122500e+02 6.279222651118261955e-06
7.977988994497247859e+02 6.245415487098989687e-06
7.986993496748374355e+02 6.223393264608605579e-06
7.995997998999499714e+02 6.209948610812044958e-06
8.005002501250625073e+02 6.202887374741078108e-06
8.014007003501750432e+02 6.200678179207121922e-06
8.023011505752875792e+02 6.202231095989675334e-06
8.032016008004001151e+02 6.206755995300572345e-06
8.041020510255127647e+02 6.213670316837551904e-06
8.050025012506253006e+02 6.222537928414180133e-06
8.059029514757378365e+02 6.233027873055512074e-06
8.068034017008503724e+02 6.244886052017348859e-06
8.077038519259629084e+02 6.257915475920032112e-06
8.086043021510754443e+02 6.271962297457998519e-06
8.095047523761880939e+02 6.286905812277842279e-06
8.104052026013006298e+02 6.302651241753494538e-06
8.113056528264131657e+02 6.319124503018548153e-06
8.122061030515257016e+02 6.336268407456057009e-06
8.131065532766382375e+02 6.354039925910412556e-06
8.140070035017508872e+02 6.372408293395171872e-06
8.149074537268634231e+02 6.391353801895201101e-06
8.158079039519759590e+02 6.410867186143119003e-06
8.167083541770884949e+02 6.430949542955518443e-06
8.176088044022010308e+02 6.451612800496983920e-06
8.185092546273135667e+02 6.472880827700052732e-06
8.194097048524262163e+02 6.494791328578521748e-06
8.203101550775387523e+02 6.517398743566017750e-06
8.212106053026512882e+02 6.540778508282412309e-06
8.221110555277638241e+02 6.565033169906608347e-06
8.230115057528763600e+02 6.590300866476148345e-06
8.239119559779890096e+02 6.616765910413807057e-06
8.248124062031015455e+02 6.644667715018665196e-06
8.257128564282140815e+02 6.674295888205897724e-06
8.266133066533266174e+02 6.705966277798195782e-06
8.275137568784391533e+02 6.740075674418769401e-06
8.284142071035516892e+02 6.777376928661940853e-06
8.293146573286643388e+02 6.819177322917480228e-06
8.302151075537768747e+02 6.867310935286545157e-06
8.311155577788894107e+02 6.924338200136581951e-06
8.320160080040019466e+02 6.994062616792863075e-06
8.329164582291144825e+02 7.082282018129808364e-06
8.338169084542270184e+02 7.197721901054020652e-06
8.347173586793396680e+02 7.352539159461756385e-06
8.356178089044522039e+02 7.559423990490417662e-06
8.365182591295647399e+02 7.816074528251613191e-06
8.374187093546772758e+02 8.066015446717020865e-06
8.383191595797898117e+02 8.181492707406224561e-06
8.392196098049024613e+02 8.088695923670069854e-06
8.401200600300149972e+02 7.879136119556270175e-06
8.410205102551275331e+02 7.674780400608408341e-06
8.419209604802400690e+02 7.522485904299975958e-06
8.428214107053526050e+02 7.420915655223825176e-06
8.437218609304651409e+02 7.356978323868441986e-06
8.446223111555777905e+02 7.318915323445555558e-06
8.455227613806903264e+02 7.298416505448571202e-06
8.464232116058028623e+02 7.289975963661187805e-06
8.473236618309153982e+02 7.289985398361425836e-06
8.482241120560279342e+02 7.296058395383729927e-06
8.491245622811405838e+02 7.306590070478864397e-06
8.500250125062531197e+02 7.320480482726021344e-06
8.509254627313656556e+02 7.336961519419689658e-06
8.518259129564781915e+02 7.355487428543633214e-06
8.527263631815907274e+02 7.375664518930479876e-06
8.536268134067032634e+02 7.397205261478848488e-06
8.545272636318159130e+02 7.419897826426837952e-06
8.554277138569284489e+02 7.443585536725576282e-06
8.563281640820409848e+02 7.468152829783018233e-06
8.572286143071535207e+02 7.493515611896740549e-06
8.581290645322660566e+02 7.519614657440262406e-06
8.590295147573785925e+02 7.546411179207121019e-06
8.599299649824912422e+02 7.573884013138666017e-06
8.608304152076037781e+02 7.602028069076859223e-06
8.617308654327163140e+02 7.630853899695658654e-06
8.626313156578288499e+02 7.660388384797275441e-06
8.635317658829413858e+02 7.690676659296038061e-06
8.644322161080540354e+02 7.721785575415203901e-06
8.653326663331665713e+02 7.753809251720356611e-06
8.662331165582791073e+02 7.786877635008174941e-06
8.671335667833916432e+02 7.821169583319514444e-06
8.680340170085041791e+02 7.856932811053888042e-06
8.689344672336167150e+02 7.894513750984267193e-06
8.698349174587293646e+02 7.934399134004636062e-06
8.707353676838419005e+02 7.977259645254798404e-06
8.716358179089544365e+02 8.023935408533311493e-06
8.725362681340669724e+02 8.075148784614509618e-06
8.734367183591795083e+02 8.130564611045754369e-06
8.743371685842921579e+02 8.187889861213115558e-06
8.752376188094046938e+02 8.245635036338169350e-06
8.761380690345172297e+02 8.307892515658467914e-06
8.770385192596297657e+02 8.382193475233615205e-06
8.779389694847423016e+02 8.475952112309409877e-06
8.788394197098548375e+02 8.597659785049681860e-06
8.797398699349674871e+02 8.759462250352390922e-06
8.806403201600800230e+02 8.978552722343547372e-06
8.815407703851925589e+02 9.273656393592992028e-06
8.824412206103050949e+02 9.644142420003297343e-06
8.833416708354176308e+02 1.001446461365550087e-05
8.842421210605301667e+02 1.020095619481289112e-05
8.851425712856428163e+02 1.008098561125701957e-05
8.860430215107553522e+02 9.775795681351083687e-06
8.869434717358678881e+02 9.469382125188601819e-06
8.878439219609804240e+02 9.237867691213362415e-06
8.887443721860929600e+02 9.081960575146520883e-06
8.896448224112056096e+02 8.982687024547701595e-06
8.905452726363181455e+02 8.922447761969278692e-06
8.914457228614306814e+02 8.888702238349232516e-06
8.923461730865432173e+02 8.873124020837258298e-06
8.932466233116557532e+02 8.870256580962138004e-06
8.941470735367682892e+02 8.876494219248051847e-06
8.950475237618809388e+02 8.889414741496855097e-06
8.959479739869934747e+02 8.907359839568555778e-06
8.968484242121060106e+02 8.929172487297675997e-06
8.977488744372185465e+02 8.954031030185383603e-06
8.986493246623310824e+02 8.981342781637675159e-06
8.995497748874437320e+02 9.010674588901030992e-06
9.004502251125562680e+02 9.041706740617153781e-06
9.013506753376688039e+02 9.074201909248706154e-06
9.022511255627813398e+02 9.107983955544615300e-06
9.031515757878938757e+02 9.142923343959916848e-06
9.040520260130064116e+02 9.178927126980054226e-06
9.049524762381190612e+02 9.215932196483817216e-06
9.058529264632315972e+02 9.253900965319857892e-06
9.067533766883441331e+02 9.292819040046889864e-06
9.076538269134566690e+02 9.332694683877096589e-06
9.085542771385692049e+02 9.373560036402005019e-06
9.094547273636817408e+02 9.415474399034524944e-06
9.103551775887943904e+02 9.458530290368911356e-06
9.112556278139069263e+02 9.502863415226008779e-06
9.121560780390194623e+02 9.548668380300843886e-06
9.130565282641319982e+02 9.596222710983524817e-06
9.139569784892445341e+02 9.645921329462456295e-06
9.148574287143571837e+02 9.698316797770587178e-06
9.157578789394697196e+02 9.754127697540376015e-06
9.166583291645822555e+02 9.814069627649502981e-06
9.175587793896947915e+02 9.878204584164861660e-06
9.184592296148073274e+02 9.945101182882826153e-06
9.193596798399198633e+02 1.001349577499361798e-05
9.202601300650325129e+02 1.008648942937900446e-05
9.211605802901450488e+02 1.017085124635348873e-05
9.220610305152575847e+02 1.027392068376429368e-05
9.229614807403701207e+02 1.040422558455772620e-05
9.238619309654826566e+02 1.057316287451939854e-05
9.247623811905953062e+02 1.079347387127660778e-05
9.256628314157078421e+02 1.106655978273238711e-05
9.265632816408203780e+02 1.134652485168141784e-05
9.274637318659329139e+02 1.151266759209849053e-05
9.283641820910454499e+02 1.147257029906205364e-05
9.292646323161579858e+02 1.129789134238967836e-05
9.301650825412706354e+02 1.111600283456021983e-05
9.310655327663831713e+02 1.098391320799917969e-05
9.319659829914957072e+02 1.090427511141055006e-05
9.328664332166082431e+02 1.086454027397257148e-05
9.337668834417207790e+02 1.085261442106210591e-05
9.346673336668334287e+02 1.085981189366256064e-05
9.355677838919459646e+02 1.088037114300993324e-05
9.364682341170585005e+02 1.091053959381702334e-05
9.373686843421710364e+02 1.094786616061890653e-05
9.382691345672835723e+02 1.099073607483399527e-05
9.391695847923961082e+02 1.103807882979814432e-05
9.400700350175087578e+02 1.108918655916141791e-05
9.409704852426212938e+02 1.114360088757984134e-05
9.418709354677338297e+02 1.120104231024791590e-05
9.427713856928463656e+02 1.126136656089136084e-05
9.436718359179589015e+02 1.132453892229390022e-05
9.445722861430714374e+02 1.139062132861976736e-05
9.454727363681840870e+02 1.145976962135722405e-05
9.463731865932966230e+02 1.153224023426960671e-05
9.472736368184091589e+02 1.160840742223230866e-05
9.481740870435216948e+02 1.168879414313041029e-05
9.490745372686342307e+02 1.177412243366755854e-05
9.499749874937468803e+02 1.186539332030430024e-05
9.508754377188594162e+02 1.196401237456869149e-05
9.517758879439719522e+02 1.207198300253831121e-05
9.526763381690844881e+02 1.219218319045374044e-05
9.535767883941970240e+02 1.232866752002703404e-05
9.544772386193095599e+02 1.248659037778638893e-05
9.553776888444222095e+02 1.267019144709838398e-05
9.562781390695347454e+02 1.287534626829502403e-05
9.571785892946472813e+02 1.307844516810174513e-05
9.580790395197598173e+02 1.325010576306770867e-05
9.589794897448723532e+02 1.340157297219038033e-05
9.598799399699850028e+02 1.357940960004945661e-05
9.607803901950975387e+02 1.382249217649709547e-05
9.616808404202100746e+02 1.415815817265452663e-05
9.625812906453226105e+02 1.461708425747412347e-05
9.634817408704351465e+02 1.524007034194788480e-05
9.643821910955476824e+02 1.606397487880319771e-05
9.652826413206603320e+02 1.705616335306425063e-05
9.661830915457728679e+02 1.799224690947298329e-05
9.670835417708854038e+02 1.851777884713650952e-05
9.679839919959979397e+02 1.860467284810684443e-05
9.688844422211104757e+02 1.862887046823967271e-05
9.697848924462230116e+02 1.893838814583790310e-05
9.706853426713356612e+02 1.972604726439379497e-05
9.715857928964481971e+02 2.105461120593541731e-05
9.724862431215607330e+02 2.273211745000628921e-05
9.733866933466732689e+02 2.411536139859889497e-05
9.742871435717858049e+02 2.453697053579901235e-05
9.751875937968984545e+02 2.425096468250359071e-05
9.760880440220109904e+02 2.397572422375417203e-05
9.769884942471235263e+02 2.383273801816288037e-05
9.778889444722360622e+02 2.351335110417159503e-05
9.787893946973485981e+02 2.308932179932864808e-05
9.796898449224611340e+02 2.290898645111205700e-05
9.805902951475737837e+02 2.290757302471234903e-05
9.814907453726863196e+02 2.259160068246185104e-05
9.823911955977988555e+02 2.176959662635387951e-05
9.832916458229113914e+02 2.081464875172404807e-05
9.841920960480239273e+02 2.009172496035315362e-05
9.850925462731365769e+02 1.974226660941737904e-05
9.859929964982491128e+02 1.980109551274275711e-05
9.868934467233616488e+02 2.027976402635390217e-05
9.877938969484741847e+02 2.116444105098479249e-05
9.886943471735867206e+02 2.230627449350225147e-05
9.895947973986992565e+02 2.332204307254796767e-05
9.904952476238119061e+02 2.391944295158095841e-05
9.913956978489244420e+02 2.430205776673844006e-05
9.922961480740369780e+02 2.468358620814174189e-05
9.931965982991495139e+02 2.494501181952226508e-05
9.940970485242620498e+02 2.516530847211903067e-05
9.949974987493745857e+02 2.567075014760559937e-05
9.958979489744872353e+02 2.634596498604083851e-05
9.967983991995997712e+02 2.645036855768026425e-05
9.976988494247123072e+02 2.553863644193571486e-05
9.985992996498248431e+02 2.415903441610477942e-05
9.994997498749373790e+02 2.302269888727878280e-05
1.000400200100050029e+03 2.240470220226114208e-05
1.001300650325162565e+03 2.228988000548939364e-05
1.002201100550275100e+03 2.250854400860675269e-05
1.003101550775387636e+03 2.276971024228165578e-05
1.004002001000500172e+03 2.290435749502263199e-05
1.004902451225612708e+03 2.310161852389699475e-05
1.005802901450725358e+03 2.362884159740880928e-05
1.006703351675837894e+03 2.448867634165830415e-05
1.007603801900950430e+03 2.527741704913993485e-05
1.008504252126062966e+03 2.542276004699002741e-05
1.009404702351175501e+03 2.493256175589298048e-05
1.010305152576288151e+03 2.438822680549055432e-05
1.011205602801400687e+03 2.423532777341742093e-05
1.012106053026513223e+03 2.464376975785177352e-05
1.013006503251625759e+03 2.569702869077253416e-05
1.013906953476738295e+03 2.747570849396115158e-05
1.014807403701850831e+03 2.993465529662230529e-05
1.015707853926963480e+03 3.249870164532277477e-05
1.016608304152076016e+03 3.380959569990045998e-05
1.017508754377188552e+03 3.294846794592764318e-05
1.018409204602301088e+03 3.079049447659523047e-05
1.019309654827413624e+03 2.870005059959493469e-05
1.020210105052526160e+03 2.726402739398282242e-05
1.021110555277638809e+03 2.652078940394181513e-05
1.022011005502751345e+03 2.637631008536443872e-05
1.022911455727863881e+03 2.676948693997515880e-05
1.023811905952976417e+03 2.771278939467090207e-05
1.024712356178089067e+03 2.930437093639384045e-05
1.025612806403201603e+03 3.173605089863794083e-05
1.026513256628314139e+03 3.526865535256264481e-05
1.027413706853426675e+03 4.004674790805752999e-05
1.028314157078539210e+03 4.548454967069058980e-05
1.029214607303651746e+03 4.944473685562618756e-05
1.030115057528764282e+03 4.945590494658687715e-05
1.031015507753876818e+03 4.609548737237932988e-05
1.031915957978989354e+03 4.218163584727393681e-05
1.032816408204101890e+03 3.951216225710568416e-05
1.033716858429214653e+03 3.854775511831567698e-05
1.034617308654327189e+03 3.931419310797038647e-05
1.035517758879439725e+03 4.182282649945580973e-05
1.036418209104552261e+03 4.591262799393637718e-05
1.037318659329664797e+03 5.050120449055632723e-05
1.038219109554777333e+03 5.301217599258792107e-05
1.039119559779889869e+03 5.145280964183657408e-05
1.040020010005002405e+03 4.712880176782549151e-05
1.040920460230114941e+03 4.261784951303092007e-05
1.041820910455227477e+03 3.914541366758863980e-05
1.042721360680340013e+03 3.671188845340967968e-05
1.043621810905452776e+03 3.506279545601983030e-05
1.044522261130565312e+03 3.411042563450859924e-05
1.045422711355677848e+03 3.383220164547925566e-05
1.046323161580790384e+03 3.420898433222168387e-05
1.047223611805902920e+03 3.526510041807357090e-05
1.048124062031015455e+03 3.709115757838403113e-05
1.049024512256127991e+03 3.979932074948241071e-05
1.049924962481240527e+03 4.331205957445385127e-05
1.050825412706353063e+03 4.691799138543150988e-05
1.051725862931465599e+03 4.931994020056015425e-05
1.052626313156578135e+03 5.024698785058468478e-05
1.053526763381690898e+03 5.116323227200133341e-05
1.054427213606803434e+03 5.361123501559502346e-05
1.055327663831915970e+03 5.841439984805849229e-05
1.056228114057028506e+03 6.583111371412729400e-05
1.057128564282141042e+03 7.529864158727031401e-05
1.058029014507253578e+03 8.527190461902360086e-05
1.058929464732366114e+03 9.391530561690370307e-05
1.059829914957478650e+03 9.865440624818021817e-05
1.060730365182591186e+03 9.780964541560214598e-05
1.061630815407703722e+03 9.430092636962284511e-05
1.062531265632816257e+03 9.140908389456567037e-05
1.063431715857929021e+03 8.862303100685263869e-05
1.064332166083041557e+03 8.463740973591179443e-05
1.065232616308154093e+03 7.943561214211090026e-05
1.066133066533266629e+03 7.317204911690136583e-05
1.067033516758379164e+03 6.702019812124594981e-05
1.067933966983491700e+03 6.260131243929682547e-05
1.068834417208604236e+03 6.063754712831755512e-05
1.069734867433716772e+03 6.120636475284257742e-05
1.070635317658829308e+03 6.415807997081404679e-05
1.071535767883941844e+03 6.879000969907364028e-05
1.072436218109054380e+03 7.304057786097833884e-05
1.073336668334167143e+03 7.438360725934432718e-05
1.074237118559279679e+03 7.318121759962087423e-05
1.075137568784392215e+03 7.237097906271138328e-05
1.076038019009504751e+03 7.421273978036145439e-05
1.076938469234617287e+03 7.976924282281833199e-05
1.077838919459729823e+03 8.956717541243043547e-05
1.078739369684842359e+03 1.030851943841767167e-04
1.079639819909954895e+03 1.165358984263787788e-04
1.080540270135067431e+03 1.223667741518586936e-04
1.081440720360179967e+03 1.171696377788259156e-04
1.082341170585292502e+03 1.070190446200186036e-04
1.083241620810405038e+03 9.900175343274190531e-05
1.084142071035517802e+03 9.593147841146815614e-05
1.085042521260630338e+03 9.813234736712223721e-05
1.085942971485742873e+03 1.054284166928137929e-04
1.086843421710855409e+03 1.179971690929672778e-04
1.087743871935967945e+03 1.354669705257121172e-04
1.088644322161080481e+03 1.534945694008158358e-04
1.089544772386193017e+03 1.632700997040671329e-04
1.090445222611305553e+03 1.614270072503059985e-04
1.091345672836418089e+03 1.542578600080085573e-04
1.092246123061530625e+03 1.457909339616220417e-04
1.093146573286643161e+03 1.353550655342895370e-04
1.094047023511755924e+03 1.251218745021197905e-04
1.094947473736868460e+03 1.192957931079256632e-04
1.095847923961980996e+03 1.202027281529060660e-04
1.096748374187093532e+03 1.283629736554784014e-04
1.097648824412206068e+03 1.423310139187203597e-04
1.098549274637318604e+03 1.560856732194020264e-04
1.099449724862431140e+03 1.594549359120083290e-04
1.100350175087543676e+03 1.491132172628962117e-04
1.101250625312656211e+03 1.328409183816096201e-04
1.102151075537768747e+03 1.182287935893858090e-04
1.103051525762881283e+03 1.081671179901028189e-04
1.103951975987994047e+03 1.030921763662530176e-04
1.104852426213106583e+03 1.027219370357583474e-04
1.105752876438219118e+03 1.069278751947363862e-04
1.106653326663331654e+03 1.160255374131820451e-04
1.107553776888444190e+03 1.304980929543809239e-04
1.108454227113556726e+03 1.500095993127872429e-04
1.109354677338669262e+03 1.718400916529427304e-04
1.110255127563781798e+03 1.920381657726789567e-04
1.111155577788894334e+03 2.096938420056264362e-04
1.112056028014006870e+03 2.231539433961580911e-04
1.112956478239119406e+03 2.280449797112201100e-04
1.113856928464232169e+03 2.276077434668485823e-04
1.114757378689344705e+03 2.281670918186873233e-04
1.115657828914457241e+03 2.256320619266854023e-04
1.116558279139569777e+03 2.120771895193937994e-04
1.117458729364682313e+03 1.906401761194939117e-04
1.118359179589794849e+03 1.695836017001311590e-04
1.119259629814907385e+03 1.531252882926291848e-04
1.120160080040019920e+03 1.429677425695952792e-04
1.121060530265132456e+03 1.395971074785183120e-04
1.121960980490244992e+03 1.426538039973035117e-04
1.122861430715357528e+03 1.512732256869089398e-04
1.123761880940470292e+03 1.628608079483161023e-04
1.124662331165582827e+03 1.726790968017212794e-04
1.125562781390695363e+03 1.795105170793292722e-04
1.126463231615807899e+03 1.889701892574947417e-04
1.127363681840920435e+03 2.064941625462522203e-04
1.128264132066032971e+03 2.308732351080033886e-04
1.129164582291145507e+03 2.521391758856450440e-04
1.130065032516258043e+03 2.599805896301619576e-04
1.130965482741370579e+03 2.581802854780061956e-04
1.131865932966483115e+03 2.557877689125459346e-04
1.132766383191595651e+03 2.533761408726336348e-04
1.133666833416708187e+03 2.505838698274623052e-04
1.134567283641820950e+03 2.512553939701684248e-04
1.135467733866933486e+03 2.556614823734386279e-04
1.136368184092046022e+03 2.606338985109066513e-04
1.137268634317158558e+03 2.675207868704221055e-04
1.138169084542271094e+03 2.789947165432036971e-04
1.139069534767383630e+03 2.885753421463088512e-04
1.139969984992496165e+03 2.872995442315398541e-04
1.140870435217608701e+03 2.801048893567801017e-04
1.141770885442721237e+03 2.787284128782380058e-04
1.142671335667833773e+03 2.864866313631425068e-04
1.143571785892946309e+03 2.984427877496239408e-04
1.144472236118059072e+03 3.097472670863829318e-04
1.145372686343171608e+03 3.170860351180952328e-04
1.146273136568284144e+03 3.195432999204465916e-04
1.147173586793396680e+03 3.253736726507911901e-04
1.148074037018509216e+03 3.476812248764142230e-04
1.148974487243621752e+03 3.959979526140649793e-04
1.149874937468734288e+03 4.729035075428758865e-04
1.150775387693846824e+03 5.644734295236076681e-04
1.151675837918959360e+03 6.266090211293896643e-04
1.152576288144071896e+03 6.136177039935970367e-04
1.153476738369184432e+03 5.419556043115118533e-04
1.154377188594297195e+03 4.646490799116447142e-04
1.155277638819409731e+03 4.071110547062092746e-04
1.156178089044522267e+03 3.616792315077592022e-04
1.157078539269634803e+03 3.132400726541664858e-04
1.157978989494747339e+03 2.621935697464227040e-04
1.158879439719859874e+03 2.176655747646887484e-04
1.159779889944972410e+03 1.835327146191351655e-04
1.160680340170084946e+03 1.586913819588814097e-04
1.161580790395197482e+03 1.408245558564595536e-04
1.162481240620310018e+03 1.279652331564157632e-04
1.163381690845422554e+03 1.187338122413820259e-04
1.164282141070535317e+03 1.122260203631412329e-04
1.165182591295647853e+03 1.078764434545881768e-04
1.166083041520760389e+03 1.053635845497560397e-04
1.166983491745872925e+03 1.045579498976295841e-04
1.167883941970985461e+03 1.055063765181655524e-04
1.168784392196097997e+03 1.084502927889696304e-04
1.169684842421210533e+03 1.138819972873114921e-04
1.170585292646323069e+03 1.226464077739734327e-04
1.171485742871435605e+03 1.360807110264048662e-04
1.172386193096548141e+03 1.560888643263944736e-04
1.173286643321660677e+03 1.846690055054226050e-04
1.174187093546773440e+03 2.214058674079120298e-04
1.175087543771885976e+03 2.571592534524850420e-04
1.175987993996998512e+03 2.713447725709206720e-04
1.176888444222111048e+03 2.521296761819724727e-04
1.177788894447223583e+03 2.142673792854048144e-04
1.178689344672336119e+03 1.773434401574423131e-04
1.179589794897448655e+03 1.488568611357296448e-04
1.180490245122561191e+03 1.285743748908995527e-04
1.181390695347673727e+03 1.143824691434344585e-04
1.182291145572786263e+03 1.043852679502382076e-04
1.183191595797898799e+03 9.724252181852807296e-05
1.184092046023011562e+03 9.206548350675373884e-05
1.184992496248124098e+03 8.827102130170671850e-05
1.185892946473236634e+03 8.547294776245817935e-05
1.186793396698349170e+03 8.341120242922085161e-05
1.187693846923461706e+03 8.190736591014375137e-05
1.188594297148574242e+03 8.083681229216019433e-05
1.189494747373686778e+03 8.011110714708987194e-05
1.190395197598799314e+03 7.966671724262021489e-05
1.191295647823911850e+03 7.945765532932526484e-05
1.192196098049024386e+03 7.945062364123895826e-05
1.193096548274136921e+03 7.962178079782234136e-05
1.193996998499249457e+03 7.995459425987690334e-05
1.194897448724362221e+03 8.043844994016276922e-05
1.195797898949474757e+03 8.106782442704783083e-05
1.196698349174587293e+03 8.184191729107394091e-05
1.197598799399699828e+03 8.276471696334455137e-05
1.198499249624812364e+03 8.384554814882681957e-05
1.199399699849924900e+03 8.510023952881709108e-05
1.200300150075037436e+03 8.655318149132587037e-05
1.201200600300149972e+03 8.824073300722011623e-05
1.202101050525262508e+03 9.021666478860591008e-05
1.203001500750375044e+03 9.256036291215077861e-05
1.203901950975487580e+03 9.538720922012595168e-05
1.204802401200600343e+03 9.885328297901636928e-05
1.205702851425712879e+03 1.031187498050762340e-04
1.206603301650825415e+03 1.081653145547385308e-04
1.207503751875937951e+03 1.133723046965402949e-04
1.208404202101050487e+03 1.174477850897182409e-04
1.209304652326163023e+03 1.198849341646713782e-04
1.210205102551275559e+03 1.218826528001668377e-04
1.211105552776388095e+03 1.248015537317756149e-04
1.212006003001500630e+03 1.292619355470361702e-04
1.212906453226613166e+03 1.355110773964005109e-04
1.213806903451725702e+03 1.438113293529002948e-04
1.214707353676838466e+03 1.546124246770396718e-04
1.215607803901951002e+03 1.686544646223849333e-04
1.216508254127063537e+03 1.870981271180145906e-04
1.217408704352176073e+03 2.117339804344328322e-04
1.218309154577288609e+03 2.453096911252095579e-04
1.219209604802401145e+03 2.919708600904393110e-04
1.220110055027513681e+03 3.575679573831767920e-04
1.221010505252626217e+03 4.486141414908414071e-04
1.221910955477738753e+03 5.661166186306874470e-04
1.222811405702851289e+03 6.897848184708703237e-04
1.223711855927963825e+03 7.701673711971101458e-04
1.224612306153076588e+03 7.712050112496008194e-04
1.225512756378189124e+03 7.050043827781701236e-04
1.226413206603301660e+03 6.018521510194477578e-04
1.227313656828414196e+03 4.958852974107626297e-04
1.228214107053526732e+03 4.101292033299465921e-04
1.229114557278639268e+03 3.481945237609141634e-04
1.230015007503751804e+03 3.047803774569632471e-04
1.230915457728864340e+03 2.741283251383921232e-04
1.231815907953976875e+03 2.521032939231726880e-04
1.232716358179089411e+03 2.359891519346666775e-04
1.233616808404201947e+03 2.239981653374727361e-04
1.234517258629314711e+03 2.150034643015755003e-04
1.235417708854427246e+03 2.082577713521257764e-04
1.236318159079539782e+03 2.032779273497959110e-04
1.237218609304652318e+03 1.995460826847871483e-04
1.238119059529764854e+03 1.966101568551185778e-04
1.239019509754877390e+03 1.943759670239743461e-04
1.239919959979989926e+03 1.926186411879235070e-04
1.240820410205102462e+03 1.912030351574670040e-04
1.241720860430214998e+03 1.900675368090379573e-04
1.242621310655327534e+03 1.886458590870252665e-04
1.243521760880440070e+03 1.871021883222000908e-04
1.244422211105552606e+03 1.863970653766289535e-04
1.245322661330665369e+03 1.863678439321923039e-04
1.246223111555777905e+03 1.864335669109968880e-04
1.247123561780890441e+03 1.869740223473610383e-04
1.248024012006002977e+03 1.881897176395557554e-04
1.248924462231115513e+03 1.896913534398891963e-04
1.249824912456228049e+03 1.917306614607153117e-04
1.250725362681340584e+03 1.949617842713324801e-04
1.251625812906453120e+03 1.988526279397138843e-04
1.252526263131565656e+03 2.022157876161919125e-04
1.253426713356678192e+03 2.054705224647018422e-04
1.254327163581790728e+03 2.099430610109492823e-04
1.255227613806903491e+03 2.156077078852382039e-04
1.256128064032016027e+03 2.217306640652480282e-04
1.257028514257128563e+03 2.287229107737130088e-04
1.257928964482241099e+03 2.376162552341001951e-04
1.258829414707353635e+03 2.484626398402996336e-04
1.259729864932466171e+03 2.605070463479250008e-04
1.260630315157578707e+03 2.744667173460840748e-04
1.261530765382691243e+03 2.928160024348145534e-04
1.262431215607803779e+03 3.178226208831868172e-04
1.263331665832916315e+03 3.512692114693842407e-04
1.264232116058028851e+03 3.947978603014541611e-04
1.265132566283141614e+03 4.476306762635421494e-04
1.266033016508254150e+03 4.995036358557940074e-04
1.266933466733366686e+03 5.284163194457523792e-04
1.267833916958479222e+03 5.209325600638170387e-04
1.268734367183591758e+03 4.884858115309114639e-04
1.269634817408704293e+03 4.466838737058877683e-04
1.270535267633816829e+03 4.059751764986080347e-04
1.271435717858929365e+03 3.742007963930733838e-04
1.272336168084041901e+03 3.524485816442365156e-04
1.273236618309154437e+03 3.374496894755906894e-04
1.274137068534266973e+03 3.276619283837984187e-04
1.275037518759379736e+03 3.234501408761264940e-04
1.275937968984492272e+03 3.235521059115593705e-04
1.276838419209604808e+03 3.236200233644624322e-04
1.277738869434717344e+03 3.201986568610963851e-04
1.278639319659829880e+03 3.154061684117149210e-04
1.279539769884942416e+03 3.131360920625142876e-04
1.280440220110054952e+03 3.146958139058530146e-04
1.281340670335167488e+03 3.192083138007601947e-04
1.282241120560280024e+03 3.259408026096065293e-04
1.283141570785392560e+03 3.357999581497161045e-04
1.284042021010505096e+03 3.494151280280097444e-04
1.284942471235617859e+03 3.640052500544535248e-04
1.285842921460730395e+03 3.731704476406600334e-04
1.286743371685842931e+03 3.740365404906151087e-04
1.287643821910955467e+03 3.718018229913559996e-04
1.288544272136068003e+03 3.724551167168196376e-04
1.289444722361180538e+03 3.782932913334294722e-04
1.290345172586293074e+03 3.895619241909574525e-04
1.291245622811405610e+03 4.064850609630524182e-04
1.292146073036518146e+03 4.291946532647346628e-04
1.293046523261630682e+03 4.547494940727515758e-04
1.293946973486743218e+03 4.747063682673587515e-04
1.294847423711855754e+03 4.823372098832215881e-04
1.295747873936968517e+03 4.830525301850797947e-04
1.296648324162081053e+03 4.871434447515276471e-04
1.297548774387193589e+03 5.002021674536405189e-04
1.298449224612306125e+03 5.238721638326621598e-04
1.299349674837418661e+03 5.581007435414353035e-04
1.300250125062531197e+03 5.993019135351779518e-04
1.301150575287643733e+03 6.361365278898357218e-04
1.302051025512756269e+03 6.554609194682671112e-04
1.302951475737868805e+03 6.578032934845503459e-04
1.303851925962981340e+03 6.568822595926379843e-04
1.304752376188093876e+03 6.640628860934044740e-04
1.305652826413206640e+03 6.797704159374643807e-04
1.306553276638319176e+03 6.966293573686186801e-04
1.307453726863431712e+03 7.103394433488866185e-04
1.308354177088544247e+03 7.257188913993902618e-04
1.309254627313656783e+03 7.487838457966561724e-04
1.310155077538769319e+03 7.783927592594562343e-04
1.311055527763881855e+03 8.046470197690008038e-04
1.311955977988994391e+03 8.173963030618033735e-04
1.312856428214106927e+03 8.197363915980963433e-04
1.313756878439219463e+03 8.230979050155316562e-04
1.314657328664331999e+03 8.332255609465612743e-04
1.315557778889444762e+03 8.493283469502267919e-04
1.316458229114557298e+03 8.701816222860086743e-04
1.317358679339669834e+03 8.979068446221784771e-04
1.318259129564782370e+03 9.359843908299011594e-04
1.319159579789894906e+03 9.852696954206310084e-04
1.320060030015007442e+03 1.041414804046506947e-03
1.320960480240119978e+03 1.096766717834114085e-03
1.321860930465232514e+03 1.150615030220563913e-03
1.322761380690345050e+03 1.212148586472676110e-03
1.323661830915457585e+03 1.291766201918306909e-03
1.324562281140570121e+03 1.398255726244324168e-03
1.325462731365682885e+03 1.539620133989561207e-03
1.326363181590795421e+03 1.719716674679434973e-03
1.327263631815907956e+03 1.924614888551954726e-03
1.328164082041020492e+03 2.113948709034579789e-03
1.329064532266133028e+03 2.258600124854331231e-03
1.329964982491245564e+03 2.375977415964112584e-03
1.330865432716358100e+03 2.481517172822718300e-03
1.331765882941470636e+03 2.575402605470477214e-03
1.332666333166583172e+03 2.681056601033519633e-03
1.333566783391695708e+03 2.802066081598615643e-03
1.334467233616808244e+03 2.902442115425572615e-03
1.335367683841921007e+03 2.988881950054379007e-03
1.336268134067033543e+03 3.120413598874558284e-03
1.337168584292146079e+03 3.327305688019018947e-03
1.338069034517258615e+03 3.600706060806870348e-03
1.338969484742371151e+03 3.948767416042298431e-03
1.339869934967483687e+03 4.389825079178995802e-03
1.340770385192596223e+03 4.851384290912473182e-03
1.341670835417708759e+03 5.146086252944544887e-03
1.342571285642821294e+03 5.198817899873544278e-03
1.343471735867933830e+03 5.180630149225175056e-03
1.344372186093046366e+03 5.269678150869241441e-03
1.345272636318158902e+03 5.522521916331357000e-03
1.346173086543271666e+03 5.924634955531015226e-03
1.347073536768384201e+03 6.399563681189085647e-03
1.347973986993496737e+03 6.867219270315256217e-03
1.348874437218609273e+03 7.383700331665474584e-03
1.349774887443721809e+03 8.086605019450729404e-03
1.350675337668834345e+03 9.038844157664484638e-03
1.351575787893946881e+03 1.014010784715751665e-02
1.352476238119059417e+03 1.114510967212702444e-02
1.353376688344171953e+03 1.198993937990021352e-02
1.354277138569284489e+03 1.293355552505725745e-02
1.355177588794397025e+03 1.420359537705874996e-02
1.356078039019509788e+03 1.584069935799503615e-02
1.356978489244622324e+03 1.776483672933919580e-02
1.357878939469734860e+03 1.996740614822094251e-02
1.358779389694847396e+03 2.251403611645084318e-02
1.359679839919959932e+03 2.517597846681276716e-02
1.360580290145072468e+03 2.779476442935275085e-02
1.361480740370185003e+03 3.082723332722788964e-02
1.362381190595297539e+03 3.496338051587006418e-02
1.363281640820410075e+03 4.105394503999577199e-02
1.364182091045522611e+03 5.009252030760643487e-02
1.365082541270635147e+03 6.275431468791652090e-02
1.365982991495747910e+03 7.891435271642166516e-02
1.366883441720860446e+03 9.730090900431138945e-02
1.367783891945972982e+03 1.147202415217957600e-01
1.368684342171085518e+03 1.261525944904329510e-01
1.369584792396198054e+03 1.290621744350364808e-01
1.370485242621310590e+03 1.235151082913487908e-01
1.371385692846423126e+03 1.086034139156030892e-01
1.372286143071535662e+03 8.779377182347038178e-02
1.373186593296648198e+03 6.804909498475848750e-02
1.374087043521760734e+03 5.290074322274609248e-02
1.374987493746873270e+03 4.226701644699090710e-02
1.375887943971986033e+03 3.472169184319379154e-02
1.376788394197098569e+03 2.881504866796419026e-02
1.377688844422211105e+03 2.389575039011905197e-02
1.378589294647323641e+03 1.994522040014016021e-02
1.379489744872436177e+03 1.690276614235302829e-02
1.380390195097548713e+03 1.456218375857762717e-02
1.381290645322661248e+03 1.276033912555075110e-02
1.382191095547773784e+03 1.141989847546205986e-02
1.383091545772886320e+03 1.048306921155541839e-02
1.383991995997998856e+03 9.885383650675507589e-03
1.384892446223111392e+03 9.567681500897731034e-03
1.385792896448224155e+03 9.529065427321707291e-03
1.386693346673336691e+03 9.853834720377844733e-03
1.387593796898449227e+03 1.065202617844331588e-02
1.388494247123561763e+03 1.199345514558842682e-02
1.389394697348674299e+03 1.386676582573552821e-02
1.390295147573786835e+03 1.606674324124173631e-02
1.391195597798899371e+03 1.775579929622658412e-02
1.392096048024011907e+03 1.756583768194429004e-02
1.392996498249124443e+03 1.532957849570099930e-02
1.393896948474236979e+03 1.240530821910738532e-02
1.394797398699349515e+03 9.880784336053487216e-03
1.395697848924462278e+03 8.030429710706442001e-03
1.396598299149574814e+03 6.767045801329668597e-03
1.397498749374687350e+03 5.938688649260873489e-03
1.398399199599799886e+03 5.384676993023440085e-03
1.399299649824912422e+03 4.919979443339795103e-03
1.400200100050024957e+03 4.414843687913406686e-03
1.401100550275137493e+03 3.897788675984384908e-03
1.402001000500250029e+03 3.454436948224398705e-03
1.402901450725362565e+03 3.117669718676492011e-03
1.403801900950475101e+03 2.875983021101654203e-03
1.404702351175587637e+03 2.701734494401570371e-03
1.405602801400700173e+03 2.570421975628066867e-03
1.406503251625812936e+03 2.461660342392008472e-03
1.407403701850925472e+03 2.338568592879771389e-03
1.408304152076038008e+03 2.174858093052384374e-03
1.409204602301150544e+03 1.995257058317034642e-03
1.410105052526263080e+03 1.836540153375967963e-03
1.411005502751375616e+03 1.712333107327606565e-03
1.411905952976488152e+03 1.621252262096883803e-03
1.412806403201600688e+03 1.559004027585995022e-03
1.413706853426713224e+03 1.522802600693758590e-03
1.414607303651825760e+03 1.511915997134388257e-03
1.415507753876938295e+03 1.526968309095569310e-03
1.416408204102051059e+03 1.570251909256112398e-03
1.417308654327163595e+03 1.649925641780979491e-03
1.418209104552276131e+03 1.783707553313270246e-03
1.419109554777388666e+03 1.997275477146080638e-03
1.420010005002501202e+03 2.320919091201686674e-03
1.420910455227613738e+03 2.774561217749151217e-03
1.421810905452726274e+03 3.318365014087756339e-03
1.422711355677838810e+03 3.793493066997977257e-03
1.423611805902951346e+03 3.987081305699254064e-03
1.424512256128063882e+03 3.786912423844466819e-03
1.425412706353176418e+03 3.265228391946782549e-03
1.426313156578289181e+03 2.654174030743292056e-03
1.427213606803401717e+03 2.132534392427373315e-03
1.428114057028514253e+03 1.743422004863600305e-03
1.429014507253626789e+03 1.465762317247158242e-03
1.429914957478739325e+03 1.268948913579145922e-03
1.430815407703851861e+03 1.128344632127904366e-03
1.431715857928964397e+03 1.024821245207258990e-03
1.432616308154076933e+03 9.423168649591969403e-04
1.433516758379189469e+03 8.712776591065806743e-04
1.434417208604302004e+03 8.112382024179483299e-04
1.435317658829414540e+03 7.641823463233557044e-04
1.436218109054527304e+03 7.299088635273197779e-04
1.437118559279639840e+03 7.062480817765049790e-04
1.438019009504752376e+03 6.904874145753893628e-04
1.438919459729864911e+03 6.826870996654480590e-04
1.439819909954977447e+03 6.866576483981011838e-04
1.440720360180089983e+03 7.051909246123055182e-04
1.441620810405202519e+03 7.328807005907319021e-04
1.442521260630315055e+03 7.491855085489979200e-04
1.443421710855427591e+03 7.310154421509819584e-04
1.444322161080540127e+03 6.844255727320722790e-04
1.445222611305652663e+03 6.353646999016854605e-04
1.446123061530765426e+03 5.987779543684578409e-04
1.447023511755877962e+03 5.747823268431040411e-04
1.447923961980990498e+03 5.563812871387522263e-04
1.448824412206103034e+03 5.388062595878625625e-04
1.449724862431215570e+03 5.247478286019308796e-04
1.450625312656328106e+03 5.189064279976351307e-04
1.451525762881440642e+03 5.239751271410400838e-04
1.452426213106553178e+03 5.418907595130150389e-04
1.453326663331665713e+03 5.756284092905976282e-04
1.454227113556778249e+03 6.305760697440216354e-04
1.455127563781890785e+03 7.154310249550946193e-04
1.456028014007003321e+03 8.409237483483541359e-04
1.456928464232116085e+03 1.011431297059890060e-03
1.457828914457228620e+03 1.199091056551136823e-03
1.458729364682341156e+03 1.313958269999364065e-03
1.459629814907453692e+03 1.264627961524281792e-03
1.460530265132566228e+03 1.086515833541894282e-03
1.461430715357678764e+03 8.870768504934302282e-04
1.462331165582791300e+03 7.245699240336930889e-04
1.463231615807903836e+03 6.062974656855569557e-04
1.464132066033016372e+03 5.228318274264608665e-04
1.465032516258128908e+03 4.639120530454593277e-04
1.465932966483241444e+03 4.219101924000978111e-04
1.466833416708354207e+03 3.916963080951260971e-04
1.467733866933466743e+03 3.701613505737730097e-04
1.468634317158579279e+03 3.557034375937132378e-04
1.469534767383691815e+03 3.474914590118682932e-04
1.470435217608804351e+03 3.447976154954136277e-04
1.471335667833916887e+03 3.464597124981656892e-04
1.472236118059029423e+03 3.516054729864735067e-04
1.473136568284141958e+03 3.619181161581342451e-04
1.474037018509254494e+03 3.813470197843434680e-04
1.474937468734367030e+03 4.133401205388951053e-04
1.475837918959479566e+03 4.574374597025906010e-04
1.476738369184592329e+03 5.032587543916964895e-04
1.477638819409704865e+03 5.314944162070909042e-04
1.478539269634817401e+03 5.370102449616509900e-04
1.479439719859929937e+03 5.400643516880657526e-04
1.480340170085042473e+03 5.621923825598676688e-04
1.481240620310155009e+03 6.053100465814144696e-04
1.482141070535267545e+03 6.426927882500588045e-04
1.483041520760380081e+03 6.324459156465034228e-04
1.483941970985492617e+03 5.696168981307900107e-04
1.484842421210605153e+03 4.920181509216624196e-04
1.485742871435717689e+03 4.293862549459705018e-04
1.486643321660830452e+03 3.892576193345293574e-04
1.487543771885942988e+03 3.684731463652061632e-04
1.488444222111055524e+03 3.586406680002349016e-04
1.489344672336168060e+03 3.469659160967312117e-04
1.490245122561280596e+03 3.247494944212966461e-04
1.491145572786393132e+03 2.966989939651406335e-04
1.492046023011505667e+03 2.719279552948920603e-04
1.492946473236618203e+03 2.542428223679401396e-04
1.493846923461730739e+03 2.430567687235243824e-04
1.494747373686843275e+03 2.361811275338076188e-04
1.495647823911955811e+03 2.320754275693258275e-04
1.496548274137068574e+03 2.305790879772391980e-04
1.497448724362181110e+03 2.308223798214794644e-04
1.498349174587293646e+03 2.313354700900109107e-04
1.499249624812406182e+03 2.329935418367447123e-04
1.500150075037518718e+03 2.373619359646714146e-04
1.501050525262631254e+03 2.429082005909582716e-04
1.501950975487743790e+03 2.471413141998625093e-04
1.502851425712856326e+03 2.504875966593264679e-04
1.503751875937968862e+03 2.521961851316724661e-04
1.504652326163081398e+03 2.489531742436638224e-04
1.505552776388193934e+03 2.420499587987683392e-04
1.506453226613306470e+03 2.354136171781207477e-04
1.507353676838419233e+03 2.288898589899773166e-04
1.508254127063531769e+03 2.215970329380491247e-04
1.509154577288644305e+03 2.154259879454839034e-04
1.510055027513756841e+03 2.114277813399573409e-04
1.510955477738869376e+03 2.086775894300237728e-04
1.511855927963981912e+03 2.053341731505750644e-04
1.512756378189094448e+03 2.000365647972449231e-04
1.513656828414206984e+03 1.944024839315656777e-04
1.514557278639319520e+03 1.905095621778011390e-04
1.515457728864432056e+03 1.879387579223515230e-04
1.516358179089544592e+03 1.853463475301427086e-04
1.517258629314657355e+03 1.830665185391070913e-04
1.518159079539769891e+03 1.823881626452862799e-04
1.519059529764882427e+03 1.830408440214455440e-04
1.519959979989994963e+03 1.835760795449996752e-04
1.520860430215107499e+03 1.838982841119518943e-04
1.521760880440220035e+03 1.851421850878597086e-04
1.522661330665332571e+03 1.875235115229218256e-04
1.523561780890445107e+03 1.903644952305982786e-04
1.524462231115557643e+03 1.927404958579820088e-04
1.525362681340670179e+03 1.937151316386545509e-04
1.526263131565782714e+03 1.936806706609400883e-04
1.527163581790895478e+03 1.945195920580682471e-04
1.528064032016008014e+03 1.977342292994156106e-04
1.528964482241120550e+03 2.038363592442897433e-04
1.529864932466233086e+03 2.129551159889647130e-04
1.530765382691345621e+03 2.252853002319512882e-04
1.531665832916458157e+03 2.412463377964815694e-04
1.532566283141570693e+03 2.615488676000346860e-04
1.533466733366683229e+03 2.872707253785586031e-04
1.534367183591795765e+03 3.199840848484016248e-04
1.535267633816908301e+03 3.619664722697759902e-04
1.536168084042020837e+03 4.165432874359323821e-04
1.537068534267133600e+03 4.886404307178435907e-04
1.537968984492246136e+03 5.856719282106564051e-04
1.538869434717358672e+03 7.189335480770995971e-04
1.539769884942471208e+03 9.056178184115056115e-04
1.540670335167583744e+03 1.170950931572100522e-03
1.541570785392696280e+03 1.547075900340969933e-03
1.542471235617808816e+03 2.055588179787915144e-03
1.543371685842921352e+03 2.643333079493436887e-03
1.544272136068033888e+03 3.080601481808665533e-03
1.545172586293146423e+03 3.060210913622035071e-03
1.546073036518258959e+03 2.598438463952044541e-03
1.546973486743371723e+03 2.009625689356168629e-03
1.547873936968484259e+03 1.508988833755136498e-03
1.548774387193596795e+03 1.140497054615888066e-03
1.549674837418709330e+03 8.803578187506905239e-04
1.550575287643821866e+03 6.966719348173858791e-04
1.551475737868934402e+03 5.648415556207512936e-04
1.552376188094046938e+03 4.681794250733892931e-04
1.553276638319159474e+03 3.957244617232576851e-04
1.554177088544272010e+03 3.402684797433506926e-04
1.555077538769384546e+03 2.970040326054677686e-04
1.555977988994497082e+03 2.626638653418043997e-04
1.556878439219609618e+03 2.349825026213018728e-04
1.557778889444722381e+03 2.123578584399420555e-04
1.558679339669834917e+03 1.936356604705339484e-04
1.559579789894947453e+03 1.779697353120881175e-04
1.560480240120059989e+03 1.647297848174867566e-04
1.561380690345172525e+03 1.534393894178726558e-04
1.562281140570285061e+03 1.437335931098838256e-04
1.563181590795397597e+03 1.353294002928920456e-04
1.564082041020510133e+03 1.280049276900684845e-04
1.564982491245622668e+03 1.215844522421937195e-04
1.565882941470735204e+03 1.159275460555024269e-04
1.566783391695847740e+03 1.109210840275286187e-04
1.567683841920960504e+03 1.064732960997550617e-04
1.568584292146073039e+03 1.025092954721240260e-04
1.569484742371185575e+03 9.896768644855059285e-05
1.570385192596298111e+03 9.579797070200754853e-05
1.571285642821410647e+03 9.295855219535703964e-05
1.572186093046523183e+03 9.041519796761590005e-05
1.573086543271635719e+03 8.813985053176454272e-05
1.573986993496748255e+03 8.610971577646824612e-05
1.574887443721860791e+03 8.430657118097170373e-05
1.575787893946973327e+03 8.271625611603256923e-05
1.576688344172085863e+03 8.132831781891539558e-05
1.577588794397198626e+03 8.013579640315286149e-05
1.578489244622311162e+03 7.913514148221841775e-05
1.579389694847423698e+03 7.832626129281188595e-05
1.580290145072536234e+03 7.771271448549682591e-05
1.581190595297648770e+03 7.730206552325586083e-05
1.582091045522761306e+03 7.710643797735471799e-05
1.582991495747873842e+03 7.714331774038091162e-05
1.583891945972986377e+03 7.743668308889704659e-05
1.584792396198098913e+03 7.801857436974857815e-05
1.585692846423211449e+03 7.893126878782339957e-05
1.586593296648323985e+03 8.023030495953145961e-05
1.587493746873436749e+03 8.198872276704239823e-05
1.588394197098549284e+03 8.430307194057199837e-05
1.589294647323661820e+03 8.730204097503446703e-05
1.590195097548774356e+03 9.115903787589412486e-05
1.591095547773886892e+03 9.611083809934852016e-05
1.591995997998999428e+03 1.024857164893634096e-04
1.592896448224111964e+03 1.107466614549912571e-04
1.593796898449224500e+03 1.215589265772497318e-04
1.594697348674337036e+03 1.358971953544426954e-04
1.595597798899449572e+03 1.552169074280172615e-04
1.596498249124562108e+03 1.817256472323387003e-04
1.597398699349674871e+03 2.187911672284920128e-04
1.598299149574787407e+03 2.714496228489361057e-04
1.599199599799899943e+03 3.465806348987178335e-04
1.600100050025012479e+03 4.508119399533787124e-04
1.601000500250125015e+03 5.805365430579806233e-04
1.601900950475237551e+03 6.992435088086703266e-04
1.602801400700350086e+03 7.349027890142017985e-04
1.603701850925462622e+03 6.579185905846154578e-04
1.604602301150575158e+03 5.265498931532043526e-04
1.605502751375687694e+03 4.036155115330114962e-04
1.606403201600800230e+03 3.099888991013581173e-04
1.607303651825912766e+03 2.433005952607267556e-04
1.608204102051025529e+03 1.962532050414519903e-04
1.609104552276138065e+03 1.626245239888621946e-04
1.610005002501250601e+03 1.380759899208211321e-04
1.610905452726363137e+03 1.197416318694833086e-04
1.611805902951475673e+03 1.057413544254314706e-04
1.612706353176588209e+03 9.482821471695112225e-05
1.613606803401700745e+03 8.616035526065127519e-05
1.614507253626813281e+03 7.915796752895975607e-05
1.615407703851925817e+03 7.341366136749845599e-05
1.616308154077038353e+03 6.863566332126832419e-05
1.617208604302150889e+03 6.461122794457972414e-05
1.618109054527263652e+03 6.118263844489827872e-05
1.619009504752376188e+03 5.823117294123908005e-05
1.619909954977488724e+03 5.566619904080967777e-05
1.620810405202601260e+03 5.341762883609701827e-05
1.621710855427713796e+03 5.143061422593390932e-05
1.622611305652826331e+03 4.966176075479205882e-05
1.623511755877938867e+03 4.807638701571076417e-05
1.624412206103051403e+03 4.664651470421791329e-05
1.625312656328163939e+03 4.534937640774765178e-05
1.626213106553276475e+03 4.416629507385630324e-05
1.627113556778389011e+03 4.308183358378118050e-05
1.628014007003501774e+03 4.208314287634891870e-05
1.628914457228614310e+03 4.115945759849020432e-05
1.629814907453726846e+03 4.030170248068608101e-05
1.630715357678839382e+03 3.950218260644190553e-05
1.631615807903951918e+03 3.875433781495883563e-05
1.632516258129064454e+03 3.805254654349316912e-05
1.633416708354176990e+03 3.739196808480805872e-05
1.634317158579289526e+03 3.676841491712684487e-05
1.635217608804402062e+03 3.617824874246635379e-05
1.636118059029514598e+03 3.561829534130779644e-05
1.637018509254627133e+03 3.508577445584107129e-05
1.637918959479739897e+03 3.457824174883399775e-05
1.638819409704852433e+03 3.409354052093674581e-05
1.639719859929964969e+03 3.362976135681022458e-05
1.640620310155077505e+03 3.318520824689384505e-05
1.641520760380190040e+03 3.275837002409532185e-05
1.642421210605302576e+03 3.234789618330351831e-05
1.643321660830415112e+03 3.195257633136647587e-05
1.644222111055527648e+03 3.157132265727338321e-05
1.645122561280640184e+03 3.120315492521789029e-05
1.646023011505752720e+03 3.084718758342721673e-05
1.646923461730865256e+03 3.050261865405530203e-05
1.647823911955978019e+03 3.016872012783126749e-05
1.648724362181090555e+03 2.984482963445430679e-05
1.649624812406203091e+03 2.953034319820605706e-05
1.650525262631315627e+03 2.922470891968417282e-05
1.651425712856428163e+03 2.892742145033957879e-05
1.652326163081540699e+03 2.863801714771865888e-05
1.653226613306653235e+03 2.835606981685252602e-05
1.654127063531765771e+03 2.808118695777018565e-05
1.655027513756878307e+03 2.781300645121377601e-05
1.655927963981990843e+03 2.755119362473392304e-05
1.656828414207103378e+03 2.729543864979913696e-05
1.657728864432216142e+03 2.704545422766111234e-05
1.658629314657328678e+03 2.680097352770118989e-05
1.659529764882441214e+03 2.656174834704574432e-05
1.660430215107553749e+03 2.632754746451869941e-05
1.661330665332666285e+03 2.609815516564685466e-05
1.662231115557778821e+03 2.587336991853140205e-05
1.663131565782891357e+03 2.565300318305155304e-05
1.664032016008003893e+03 2.543687833812991825e-05
1.664932466233116429e+03 2.522482971374118515e-05
1.665832916458228965e+03 2.501670171601487347e-05
1.666733366683341501e+03 2.481234803522825027e-05
1.667633816908454037e+03 2.461163092773300371e-05
1.668534267133566800e+03 2.441442056393658183e-05
1.669434717358679336e+03 2.422059443539957685e-05
1.670335167583791872e+03 2.403003681491799507e-05
1.671235617808904408e+03 2.384263826417840727e-05
1.672136068034016944e+03 2.365829518418236749e-05
1.673036518259129480e+03 2.347690940418559961e-05
1.673936968484242016e+03 2.329838780536688990e-05
1.674837418709354552e+03 2.312264197586031593e-05
1.675737868934467087e+03 2.294958789414725664e-05
1.676638319159579623e+03 2.277914563812973654e-05
1.677538769384692159e+03 2.261123911748730308e-05
1.678439219609804923e+03 2.244579582717247168e-05
1.679339669834917459e+03 2.228274662012131316e-05
1.680240120060029994e+03 2.212202549745024351e-05
1.681140570285142530e+03 2.196356941458770903e-05
1.682041020510255066e+03 2.180731810194244772e-05
1.682941470735367602e+03 2.165321389884592235e-05
1.683841920960480138e+03 2.150120159963570039e-05
1.684742371185592674e+03 2.135122831084703741e-05
1.685642821410705210e+03 2.120324331858770061e-05
1.686543271635817746e+03 2.105719796524987037e-05
1.687443721860930282e+03 2.091304553479820291e-05
1.688344172086043045e+03 2.077074114593861637e-05
1.689244622311155581e+03 2.063024165254020984e-05
1.690145072536268117e+03 2.049150555073434986e-05
1.691045522761380653e+03 2.035449289217078868e-05
1.691945972986493189e+03 2.021916520295399889e-05
1.692846423211605725e+03 2.008548540782592183e-05
1.693746873436718261e+03 1.995341775919716977e-05
1.694647323661830796e+03 1.982292777066548681e-05
1.695547773886943332e+03 1.969398215468791028e-05
1.696448224112055868e+03 1.956654876410275786e-05
1.697348674337168404e+03 1.944059653722285467e-05
1.698249124562281168e+03 1.931609544624369499e-05
1.699149574787393703e+03 1.919301644873111758e-05
1.700050025012506239e+03 1.907133144197142044e-05
1.700950475237618775e+03 1.895101321998718990e-05
1.701850925462731311e+03 1.883203543303303213e-05
1.702751375687843847e+03 1.871437254940345722e-05
1.703651825912956383e+03 1.859799981939652994e-05
1.704552276138068919e+03 1.848289324129046373e-05
1.705452726363181455e+03 1.836902952919844932e-05
1.706353176588293991e+03 1.825638608268014495e-05
1.707253626813406527e+03 1.814494095799472324e-05
1.708154077038519290e+03 1.803467284089288543e-05
1.709054527263631826e+03 1.792556102084554514e-05
1.709954977488744362e+03 1.781758536662368555e-05
1.710855427713856898e+03 1.771072630314111560e-05
1.711755877938969434e+03 1.760496478948490187e-05
1.712656328164081970e+03 1.750028229806018076e-05
1.713556778389194506e+03 1.739666079478012804e-05
1.714457228614307041e+03 1.729408272024115636e-05
1.715357678839419577e+03 1.719253097182285264e-05
1.716258129064532113e+03 1.709198888665926832e-05
1.717158579289644649e+03 1.699244022542935491e-05
1.718059029514757185e+03 1.689386915692092352e-05
1.718959479739869948e+03 1.679626024332306632e-05
1.719859929964982484e+03 1.669959842620462724e-05
1.720760380190095020e+03 1.660386901314240117e-05
1.721660830415207556e+03 1.650905766496080958e-05
1.722561280640320092e+03 1.641515038355035382e-05
1.723461730865432628e+03 1.632213350023295010e-05
1.724362181090545164e+03 1.622999366464415789e-05
1.725262631315657700e+03 1.613871783410515941e-05
1.726163081540770236e+03 1.604829326345767643e-05
1.727063531765882772e+03 1.595870749533777553e-05
1.727963981990995308e+03 1.586994835086585797e-05
1.728864432216108071e+03 1.578200392073012342e-05
1.729764882441220607e+03 1.569486255664489656e-05
1.730665332666333143e+03 1.560851286316302706e-05
1.731565782891445679e+03 1.552294368982592366e-05
1.732466233116558215e+03 1.543814412363298403e-05
1.733366683341670750e+03 1.535410348181554313e-05
1.734267133566783286e+03 1.527081130489986991e-05
1.735167583791895822e+03 1.518825735004507528e-05
1.736068034017008358e+03 1.510643158464277701e-05
1.736968484242120894e+03 1.502532418016568726e-05
1.737868934467233430e+03 1.494492550625370991e-05
1.738769384692346193e+03 1.486522612502549082e-05
1.739669834917458729e+03 1.478621678560629707e-05
1.740570285142571265e+03 1.470788841886004798e-05
1.741470735367683801e+03 1.463023213231834400e-05
1.742371185592796337e+03 1.455323920529580728e-05
1.743271635817908873e+03 1.447690108418413772e-05
1.744172086043021409e+03 1.440120937791657509e-05
1.745072536268133945e+03 1.432615585359515584e-05
1.745972986493246481e+03 1.425173243227358505e-05
1.746873436718359017e+03 1.417793118488866447e-05
1.747773886943471553e+03 1.410474432833473355e-05
1.748674337168584316e+03 1.403216422167329866e-05
1.749574787393696852e+03 1.396018336247353057e-05
1.750475237618809388e+03 1.388879438327750786e-05
1.751375687843921924e+03 1.381799004818474296e-05
1.752276138069034459e+03 1.374776324955128620e-05
1.753176588294146995e+03 1.367810700479858685e-05
1.754077038519259531e+03 1.360901445332743358e-05
1.754977488744372067e+03 1.354047885353294598e-05
1.755877938969484603e+03 1.347249357991617188e-05
1.756778389194597139e+03 1.340505212028876512e-05
1.757678839419709675e+03 1.333814807306655099e-05
1.758579289644822438e+03 1.327177514464904680e-05
1.759479739869934974e+03 1.320592714688106679e-05
1.760380190095047510e+03 1.314059799459349243e-05
1.761280640320160046e+03 1.307578170321952853e-05
1.762181090545272582e+03 1.301147238648495797e-05
1.763081540770385118e+03 1.294766425416755483e-05
1.763981990995497654e+03 1.288435160992493452e-05
1.764882441220610190e+03 1.282152884918688841e-05
1.765782891445722726e+03 1.275919045711089034e-05
1.766683341670835262e+03 1.269733100659697992e-05
1.767583791895947797e+03 1.263594515636185874e-05
1.768484242121060333e+03 1.257502764906796393e-05
1.769384692346173097e+03 1.251457330950677225e-05
1.770285142571285633e+03 1.245457704283444063e-05
1.771185592796398169e+03 1.239503383285678635e-05
1.772086043021510704e+03 1.233593874036324441e-05
1.772986493246623240e+03 1.227728690150716435e-05
1.773886943471735776e+03 1.221907352623085241e-05
1.774787393696848312e+03 1.216129389673470687e-05
1.775687843921960848e+03 1.210394336598747517e-05
1.776588294147073384e+03 1.204701735627741587e-05
1.777488744372185920e+03 1.199051135780254447e-05
1.778389194597298456e+03 1.193442092729851117e-05
1.779289644822411219e+03 1.187874168670303660e-05
1.780190095047523755e+03 1.182346932185560784e-05
1.781090545272636291e+03 1.176859958123142331e-05
1.781990995497748827e+03 1.171412827470810437e-05
1.782891445722861363e+03 1.166005127236423330e-05
1.783791895947973899e+03 1.160636450330934834e-05
1.784692346173086435e+03 1.155306395454307674e-05
1.785592796398198971e+03 1.150014566984356327e-05
1.786493246623311506e+03 1.144760574868394394e-05
1.787393696848424042e+03 1.139544034517571647e-05
1.788294147073536578e+03 1.134364566703849751e-05
1.789194597298649342e+03 1.129221797459519083e-05
1.790095047523761878e+03 1.124115357979193970e-05
1.790995497748874413e+03 1.119044884524149808e-05
1.791895947973986949e+03 1.114010018329046094e-05
1.792796398199099485e+03 1.109010405510826512e-05
1.793696848424212021e+03 1.104045696979848745e-05
1.794597298649324557e+03 1.099115548353088498e-05
1.795497748874437093e+03 1.094219619869425701e-05
1.796398199099549629e+03 1.089357576306874482e-05
1.797298649324662165e+03 1.084529086901805702e-05
1.798199099549774701e+03 1.079733825269968924e-05
1.799099549774887464e+03 1.074971469329386835e-05
1.800000000000000000e+03 1.070241701225012004e-05
