0.000000000000000000e+00 2.235667095483662975e-05
9.004502251125562351e-01 2.071164418881119650e-05
1.800900450225112470e+00 1.691185764542868953e-05
2.701350675337668594e+00 1.305919615369846270e-05
3.601800900450224940e+00 1.004557387970045709e-05
4.502251125562780842e+00 7.890310923913332330e-06
5.402701350675337189e+00 6.379717594733019945e-06
6.303151575787893535e+00 5.313184448600080203e-06
7.203601800900449881e+00 4.547358313648500017e-06
8.104052026013006227e+00 3.987017383748182680e-06
9.004502251125561685e+00 3.569799938155417936e-06
9.904952476238118919e+00 3.254554857500195163e-06
1.080540270135067438e+01 3.013701711901444656e-06
1.170585292646323161e+01 2.828426801627529036e-06
1.260630315157578707e+01 2.685680023131378227e-06
1.350675337668834430e+01 2.576281886632666217e-06
1.440720360180089976e+01 2.493714283515488773e-06
1.530765382691345522e+01 2.433337460002739729e-06
1.620810405202601245e+01 2.391877824249075063e-06
1.710855427713856969e+01 2.367092299461030587e-06
1.800900450225112337e+01 2.357551754854084279e-06
1.890945472736368060e+01 2.362508751843455417e-06
1.980990495247623784e+01 2.381829443790424867e-06
2.071035517758879507e+01 2.415979584793996706e-06
2.161080540270134875e+01 2.466062561099019866e-06
2.251125562781390599e+01 2.533914871234143462e-06
2.341170585292646322e+01 2.622273136290797246e-06
2.431215607803901690e+01 2.735038427345983548e-06
2.521260630315157414e+01 2.877681228749116023e-06
2.611305652826413137e+01 3.057858186475364337e-06
2.701350675337668861e+01 3.286357430511766238e-06
2.791395697848924229e+01 3.578565351378857210e-06
2.881440720360179952e+01 3.956774673772074652e-06
2.971485742871435676e+01 4.453860116022962630e-06
3.061530765382691044e+01 5.119154404468814344e-06
3.151575787893946767e+01 6.027681294113161083e-06
3.241620810405202491e+01 7.293636632244904158e-06
3.331665832916458214e+01 9.085382833060090380e-06
3.421710855427713938e+01 1.162193628736526991e-05
3.511755877938969661e+01 1.507207429588627737e-05
3.601800900450224674e+01 1.916458778570067785e-05
3.691845922961480397e+01 2.248952199427585528e-05
3.781890945472736121e+01 2.286062313756515615e-05
3.871935967983991844e+01 1.997815440714449778e-05
3.961980990495247568e+01 1.590929504647314361e-05
4.052026013006503291e+01 1.233479324664099166e-05
4.142071035517759015e+01 9.685191290135080150e-06
4.232116058029014027e+01 7.826308020895862501e-06
4.322161080540269751e+01 6.533919533134112261e-06
4.412206103051525474e+01 5.629190624867009489e-06
4.502251125562781198e+01 4.990060090705649330e-06
4.592296148074036921e+01 4.536806140762810084e-06
4.682341170585292645e+01 4.217829251476914277e-06
4.772386193096548368e+01 3.999763341506253083e-06
4.862431215607803381e+01 3.861223828077860980e-06
4.952476238119059104e+01 3.789005888373454952e-06
5.042521260630314828e+01 3.775861532530028679e-06
5.132566283141570551e+01 3.819325802772097855e-06
5.222611305652826275e+01 3.921313926873280758e-06
5.312656328164081998e+01 4.088395133920523778e-06
5.402701350675337721e+01 4.332806662933009405e-06
5.492746373186592734e+01 4.674442228246667809e-06
5.582791395697848458e+01 5.144260801054425707e-06
5.672836418209104181e+01 5.789785904480639247e-06
5.762881440720359905e+01 6.683313460088894566e-06
5.852926463231615628e+01 7.931834633792171231e-06
5.942971485742871351e+01 9.680532669923815349e-06
6.033016508254127075e+01 1.208398320628201127e-05
6.123061530765382088e+01 1.521004215841968269e-05
6.213106553276637811e+01 1.885703450242428648e-05
6.303151575787893535e+01 2.212806136230446448e-05
6.393196598299149258e+01 2.321930043539369813e-05
6.483241620810404982e+01 2.129237696080453298e-05
6.573286643321659994e+01 1.790048152349400906e-05
6.663331665832916428e+01 1.483919554017608001e-05
6.753376688344171441e+01 1.276632146971070714e-05
6.843421710855427875e+01 1.169100589355318160e-05
6.933466733366682888e+01 1.150873822363767846e-05
7.023511755877939322e+01 1.219023019206585175e-05
7.113556778389194335e+01 1.380252834085017489e-05
7.203601800900449348e+01 1.643038342790795450e-05
7.293646823411705782e+01 1.992673181138761036e-05
7.383691845922960795e+01 2.333390464438225392e-05
7.473736868434217229e+01 2.456656014751353229e-05
7.563781890945472242e+01 2.238080572646053933e-05
7.653826913456728676e+01 1.826916232306726050e-05
7.743871935967983688e+01 1.426933734409616604e-05
7.833916958479238701e+01 1.117042623225374576e-05
7.923961980990495135e+01 8.947399214932359648e-06
8.014007003501750148e+01 7.375429015378273528e-06
8.104052026013006582e+01 6.252461958440021891e-06
8.194097048524261595e+01 5.435407537178204089e-06
8.284142071035518029e+01 4.829206704162617658e-06
8.374187093546773042e+01 4.371372124714821562e-06
8.464232116058028055e+01 4.020447391241301202e-06
8.554277138569284489e+01 3.748476286134928894e-06
8.644322161080539502e+01 3.536267014880250100e-06
8.734367183591795936e+01 3.370425334330999036e-06
8.824412206103050949e+01 3.241478921635089517e-06
8.914457228614307382e+01 3.142675715165088516e-06
9.004502251125562395e+01 3.069204209694631076e-06
9.094547273636817408e+01 3.017683587344680783e-06
9.184592296148073842e+01 2.985831429803006549e-06
9.274637318659328855e+01 2.972253034031302100e-06
9.364682341170585289e+01 2.976318924239823218e-06
9.454727363681840302e+01 2.998111769840099091e-06
9.544772386193096736e+01 3.038433846686135815e-06
9.634817408704351749e+01 3.098874205757849710e-06
9.724862431215606762e+01 3.181948389235900437e-06
9.814907453726863196e+01 3.291349038343479430e-06
9.904952476238118209e+01 3.432354144167452535e-06
9.994997498749374643e+01 3.612430167493438811e-06
1.008504252126062966e+02 3.842113500814718086e-06
1.017508754377188609e+02 4.136386355921435960e-06
1.026513256628314110e+02 4.516867883229098242e-06
1.035517758879439612e+02 5.015253292261620152e-06
1.044522261130565255e+02 5.678600587622037967e-06
1.053526763381690756e+02 6.576915521813399339e-06
1.062531265632816400e+02 7.811947737406735439e-06
1.071535767883941901e+02 9.521866362704030918e-06
1.080540270135067544e+02 1.187547718784565016e-05
1.089544772386193046e+02 1.505106795008790908e-05
1.098549274637318547e+02 1.905735804329972453e-05
1.107553776888444190e+02 2.306768345249401579e-05
1.116558279139569692e+02 2.495325222506791196e-05
1.125562781390695335e+02 2.325348067615111999e-05
1.134567283641820836e+02 1.938501871765118615e-05
1.143571785892946480e+02 1.553750160871827696e-05
1.152576288144071981e+02 1.263431778584254021e-05
1.161580790395197482e+02 1.070699267751356936e-05
1.170585292646323126e+02 9.561034119489679293e-06
1.179589794897448627e+02 9.031428293634543379e-06
1.188594297148574270e+02 9.026322076179226576e-06
1.197598799399699772e+02 9.495034781419904303e-06
1.206603301650825415e+02 1.033600410367170133e-05
1.215607803901950916e+02 1.130108395828335003e-05
1.224612306153076418e+02 1.219655654766281542e-05
1.233616808404202061e+02 1.329036177893518017e-05
1.242621310655327562e+02 1.509749966383445368e-05
1.251625812906453206e+02 1.780452842750460829e-05
1.260630315157578707e+02 2.073310983765878386e-05
1.269634817408704350e+02 2.207059318018513716e-05
1.278639319659829852e+02 2.048096119613732895e-05
1.287643821910955353e+02 1.703708985036488330e-05
1.296648324162080996e+02 1.356523376563770626e-05
1.305652826413206640e+02 1.085730013717411797e-05
1.314657328664331999e+02 8.933858265533659384e-06
1.323661830915457642e+02 7.606606909031836278e-06
1.332666333166583286e+02 6.698680000288455588e-06
1.341670835417708929e+02 6.085214464766774610e-06
1.350675337668834288e+02 5.685886341654185101e-06
1.359679839919959932e+02 5.451702398817151587e-06
1.368684342171085575e+02 5.355385141642488675e-06
1.377688844422210934e+02 5.385902653135239565e-06
1.386693346673336578e+02 5.546215938718892477e-06
1.395697848924462221e+02 5.853700047374165183e-06
1.404702351175587864e+02 6.343037418594507098e-06
1.413706853426713224e+02 7.071095564698381574e-06
1.422711355677838867e+02 8.121372836617862261e-06
1.431715857928964510e+02 9.603761336863794664e-06
1.440720360180089870e+02 1.166065448085151974e-05
1.449724862431215513e+02 1.450351778867864097e-05
1.458729364682341156e+02 1.832878518847373008e-05
1.467733866933466800e+02 2.276790854284505345e-05
1.476738369184592159e+02 2.604913570620533424e-05
1.485742871435717802e+02 2.579386122290047798e-05
1.494747373686843446e+02 2.214579718570708708e-05
1.503751875937968805e+02 1.754406209080039679e-05
1.512756378189094448e+02 1.364525100444888698e-05
1.521760880440220092e+02 1.078184868605577929e-05
1.530765382691345735e+02 8.765991554621031931e-06
1.539769884942471094e+02 7.349136521259067034e-06
1.548774387193596738e+02 6.340099717795845271e-06
1.557778889444722381e+02 5.609329405609372087e-06
1.566783391695847740e+02 5.071845526900284698e-06
1.575787893946973384e+02 4.671904870659323871e-06
1.584792396198099027e+02 4.372498447453034767e-06
1.593796898449224670e+02 4.148661278426849671e-06
1.602801400700350030e+02 3.983304543574397297e-06
1.611805902951475673e+02 3.864649280763785129e-06
1.620810405202601316e+02 3.784663675489379214e-06
1.629814907453726676e+02 3.738066509301087817e-06
1.638819409704852319e+02 3.721587928151230019e-06
1.647823911955977962e+02 3.733448523425020439e-06
1.656828414207103606e+02 3.773072248471064719e-06
1.665832916458228965e+02 3.841042441462382848e-06
1.674837418709354608e+02 3.939314239650126804e-06
1.683841920960480252e+02 4.071538504814986112e-06
1.692846423211605611e+02 4.243322843143276951e-06
1.701850925462731254e+02 4.462586504534074195e-06
1.710855427713856898e+02 4.740350399767188794e-06
1.719859929964982541e+02 5.092094024137659209e-06
1.728864432216107900e+02 5.539853986960099827e-06
1.737868934467233544e+02 6.115359743650640850e-06
1.746873436718359187e+02 6.864858357655717578e-06
1.755877938969484546e+02 7.856290607887511784e-06
1.764882441220610190e+02 9.188397732369506067e-06
1.773886943471735833e+02 1.099682856377332823e-05
1.782891445722861476e+02 1.344246909306966513e-05
1.791895947973986836e+02 1.667456988154782861e-05
1.800900450225112479e+02 2.081347745370848220e-05
1.809904952476238122e+02 2.587089607550735853e-05
1.818909454727363482e+02 3.141313451508097120e-05
1.827913956978489125e+02 3.620177072021514136e-05
1.836918459229614768e+02 3.818045055968833761e-05
1.845922961480740412e+02 3.669789165323964413e-05
1.854927463731865771e+02 3.410606616063464403e-05
1.863931965982991414e+02 3.255480671707897578e-05
1.872936468234117058e+02 3.160138759851059703e-05
1.881940970485242417e+02 2.919469167113535347e-05
1.890945472736368060e+02 2.474416172414145603e-05
1.899949974987493704e+02 1.980016716125181057e-05
1.908954477238619347e+02 1.565967023610878719e-05
1.917958979489744706e+02 1.258406476787085588e-05
1.926963481740870350e+02 1.037933448806282914e-05
1.935967983991995993e+02 8.797989101168405017e-06
1.944972486243121352e+02 7.648673677105979329e-06
1.953976988494246996e+02 6.800382020950386782e-06
1.962981490745372639e+02 6.166124026944227272e-06
1.971985992996498283e+02 5.688109346269452649e-06
1.980990495247623642e+02 5.327621621011122397e-06
1.989994997498749285e+02 5.058549393495778401e-06
1.998999499749874929e+02 4.863247365802426557e-06
2.008004002001000288e+02 4.730058094859688956e-06
2.017008504252125931e+02 4.651831820341221184e-06
2.026013006503251574e+02 4.624969210880976616e-06
2.035017508754377218e+02 4.648987871844371173e-06
2.044022011005502577e+02 4.726566635778950954e-06
2.053026513256628220e+02 4.864016175808963319e-06
2.062031015507753864e+02 5.072247767951456506e-06
2.071035517758879223e+02 5.368466761775186294e-06
2.080040020010004866e+02 5.778931937903068384e-06
2.089044522261130510e+02 6.343224285831586029e-06
2.098049024512256153e+02 7.120529474023081469e-06
2.107053526763381512e+02 8.196765077989723560e-06
2.116058029014507156e+02 9.682836744846574017e-06
2.125062531265632799e+02 1.167437537656172855e-05
2.134067033516758158e+02 1.414432123796942423e-05
2.143071535767883802e+02 1.692915895006148359e-05
2.152076038019009445e+02 2.010937511292123773e-05
2.161080540270135089e+02 2.402765029717375775e-05
2.170085042521260448e+02 2.809504910393356019e-05
2.179089544772386091e+02 2.996012764917675239e-05
2.188094047023511735e+02 2.774664766290105069e-05
2.197098549274637094e+02 2.290724791152249024e-05
2.206103051525762737e+02 1.800496881853280972e-05
2.215107553776888381e+02 1.416727110299235528e-05
2.224112056028014024e+02 1.142726619787746932e-05
2.233116558279139383e+02 9.517479699975487276e-06
2.242121060530265027e+02 8.184408838684098560e-06
2.251125562781390670e+02 7.246811928260172818e-06
2.260130065032516029e+02 6.584968321657719621e-06
2.269134567283641672e+02 6.121488598810017714e-06
2.278139069534767316e+02 5.806620161469979824e-06
2.287143571785892959e+02 5.608777722929200076e-06
2.296148074037018318e+02 5.508781718723441156e-06
2.305152576288143962e+02 5.496528290661560409e-06
2.314157078539269605e+02 5.569351388366836249e-06
2.323161580790394964e+02 5.731707841844040030e-06
2.332166083041520608e+02 5.995945449049116544e-06
2.341170585292646251e+02 6.384413508351825827e-06
2.350175087543771895e+02 6.933517801505973722e-06
2.359179589794897254e+02 7.699895350066845334e-06
2.368184092046022897e+02 8.767574160972146485e-06
2.377188594297148541e+02 1.024834227021562072e-05
2.386193096548273900e+02 1.224337696024153634e-05
2.395197598799399543e+02 1.469005411116137275e-05
2.404202101050525187e+02 1.711144566384277356e-05
2.413206603301650830e+02 1.886539585537746555e-05
2.422211105552776189e+02 2.018693412915595426e-05
2.431215607803901833e+02 2.214870698484056261e-05
2.440220110055027476e+02 2.547965532919318812e-05
2.449224612306152835e+02 2.985703196588315253e-05
2.458229114557278479e+02 3.361463120746593442e-05
2.467233616808404122e+02 3.493280656368500541e-05
2.476238119059529765e+02 3.389868886574776250e-05
2.485242621310655124e+02 3.208561205357538556e-05
2.494247123561780768e+02 3.116135990925549698e-05
2.503251625812906411e+02 3.157492443940354608e-05
2.512256128064031770e+02 3.177283435507633494e-05
2.521260630315157414e+02 2.950447839199907729e-05
2.530265132566283057e+02 2.485861731074817468e-05
2.539269634817408701e+02 1.984798887932883043e-05
2.548274137068534060e+02 1.574111200566099251e-05
2.557278639319659703e+02 1.271519863831674053e-05
2.566283141570785347e+02 1.054928446449359693e-05
2.575287643821910706e+02 8.993364504980888013e-06
2.584292146073036633e+02 7.858887917582512550e-06
2.593296648324161993e+02 7.018133006419184182e-06
2.602301150575287352e+02 6.386372412381809252e-06
2.611305652826413279e+02 5.907010271287008680e-06
2.620310155077538639e+02 5.541986508758365772e-06
2.629314657328663998e+02 5.265598947192269411e-06
2.638319159579789925e+02 5.060513974661852227e-06
2.647323661830915285e+02 4.915042490218667621e-06
2.656328164082040644e+02 4.821441852275333884e-06
2.665332666333166571e+02 4.775027941415350704e-06
2.674337168584291931e+02 4.773954887128688752e-06
2.683341670835417858e+02 4.819634957104123273e-06
2.692346173086543217e+02 4.916833874780762717e-06
2.701350675337668577e+02 5.073738938390229583e-06
2.710355177588794504e+02 5.303033234449141707e-06
2.719359679839919863e+02 5.624081715549279611e-06
2.728364182091045222e+02 6.066684611839062423e-06
2.737368684342171150e+02 6.676659565951656474e-06
2.746373186593296509e+02 7.523443133632002957e-06
2.755377688844421868e+02 8.709086890049462339e-06
2.764382191095547796e+02 1.036818764808785360e-05
2.773386693346673155e+02 1.261619164080582709e-05
2.782391195597798514e+02 1.534499549142673635e-05
2.791395697848924442e+02 1.788439660294355107e-05
2.800400200100049801e+02 1.930529903257860178e-05
2.809404702351175729e+02 1.978002638002556845e-05
2.818409204602301088e+02 2.052115573899860725e-05
2.827413706853426447e+02 2.212832779948276061e-05
2.836418209104552375e+02 2.371769565794932971e-05
2.845422711355677734e+02 2.343327688636426395e-05
2.854427213606803093e+02 2.074717785744533753e-05
2.863431715857929021e+02 1.715846738046290516e-05
2.872436218109054380e+02 1.403841299177192181e-05
2.881440720360179739e+02 1.177012452558309335e-05
2.890445222611305667e+02 1.025263910202914774e-05
2.899449724862431026e+02 9.304721136726120317e-06
2.908454227113556385e+02 8.789204505694610419e-06
2.917458729364682313e+02 8.627059583591587699e-06
2.926463231615807672e+02 8.789901364012605312e-06
2.935467733866933600e+02 9.296362425297823574e-06
2.944472236118058959e+02 1.021558768023250235e-05
2.953476738369184318e+02 1.167237151925510934e-05
2.962481240620310246e+02 1.383163042741844634e-05
2.971485742871435605e+02 1.678327545677272254e-05
2.980490245122560964e+02 2.018982734310339561e-05
2.989494747373686891e+02 2.293655051456103627e-05
2.998499249624812251e+02 2.404280895330386734e-05
3.007503751875937610e+02 2.415675781263975505e-05
3.016508254127063537e+02 2.429846795526293540e-05
3.025512756378188897e+02 2.399608183184180119e-05
3.034517258629314256e+02 2.220369771501913615e-05
3.043521760880440183e+02 1.935257000638740730e-05
3.052526263131565543e+02 1.673779045832090518e-05
3.061530765382691470e+02 1.505426742718042364e-05
3.070535267633816829e+02 1.442035223063401916e-05
3.079539769884942189e+02 1.478250450407095061e-05
3.088544272136068116e+02 1.599695633743081007e-05
3.097548774387193475e+02 1.760968325307129165e-05
3.106553276638318835e+02 1.879340349633971813e-05
3.115557778889444762e+02 1.923309746998108497e-05
3.124562281140570121e+02 1.971728138803319259e-05
3.133566783391695481e+02 2.097867668048475240e-05
3.142571285642821408e+02 2.257361611627079365e-05
3.151575787893946767e+02 2.286159826212408571e-05
3.160580290145072127e+02 2.077289817018507386e-05
3.169584792396198054e+02 1.733361831061054482e-05
3.178589294647323413e+02 1.403054004654506694e-05
3.187593796898449341e+02 1.144576471152220869e-05
3.196598299149574700e+02 9.568058607991488710e-06
3.205602801400700059e+02 8.228386246114630814e-06
3.214607303651825987e+02 7.264655104627034632e-06
3.223611805902951346e+02 6.561363051560085596e-06
3.232616308154076705e+02 6.043534243073048597e-06
3.241620810405202633e+02 5.662043997901635652e-06
3.250625312656327992e+02 5.384541310196562466e-06
3.259629814907453351e+02 5.189255387293308527e-06
3.268634317158579279e+02 5.061200743723855483e-06
3.277638819409704638e+02 4.990504635669309227e-06
3.286643321660829997e+02 4.972203947144602539e-06
3.295647823911955925e+02 5.005797338735427757e-06
3.304652326163081284e+02 5.093977540750002048e-06
3.313656828414207212e+02 5.242757239094874903e-06
3.322661330665332571e+02 5.463773470224676974e-06
3.331665832916457930e+02 5.777512974072511955e-06
3.340670335167583858e+02 6.215719903684004874e-06
3.349674837418709217e+02 6.822697983900624626e-06
3.358679339669834576e+02 7.651464125766875381e-06
3.367683841920960504e+02 8.738924393996341309e-06
3.376688344172085863e+02 1.005378097787792860e-05
3.385692846423211222e+02 1.152848974472440279e-05
3.394697348674337150e+02 1.329355006622374036e-05
3.403701850925462509e+02 1.567735776440051839e-05
3.412706353176587868e+02 1.869435849448356402e-05
3.421710855427713796e+02 2.144235407950709392e-05
3.430715357678839155e+02 2.232233970295427743e-05
3.439719859929965082e+02 2.086567597070271616e-05
3.448724362181090441e+02 1.831739083247269599e-05
3.457728864432215801e+02 1.595537240531094358e-05
3.466733366683341728e+02 1.426278923246820250e-05
3.475737868934467087e+02 1.321556076940705993e-05
3.484742371185592447e+02 1.264599925080670249e-05
3.493746873436718374e+02 1.248775967746767680e-05
3.502751375687843733e+02 1.284272143608941632e-05
3.511755877938969093e+02 1.386938102155396231e-05
3.520760380190095020e+02 1.571874644924088960e-05
3.529764882441220379e+02 1.848685794063065698e-05
3.538769384692345739e+02 2.205636574849047116e-05
3.547773886943471666e+02 2.596596644744035890e-05
3.556778389194597025e+02 2.940707986381642155e-05
3.565782891445722953e+02 3.104709505512110536e-05
3.574787393696848312e+02 3.005065802645744195e-05
3.583791895947973671e+02 2.742756474706829363e-05
3.592796398199099599e+02 2.429425727887268353e-05
3.601800900450224958e+02 2.087294070541434845e-05
3.610805402701350317e+02 1.756913964411510614e-05
3.619809904952476245e+02 1.493170348319118947e-05
3.628814407203601604e+02 1.313222497204749545e-05
3.637818909454726963e+02 1.208635380353647196e-05
3.646823411705852891e+02 1.168484662271755152e-05
3.655827913956978250e+02 1.188339241242264786e-05
3.664832416208103609e+02 1.271737665085553652e-05
3.673836918459229537e+02 1.428248094866344107e-05
3.682841420710354896e+02 1.662874157702302582e-05
3.691845922961480824e+02 1.943231370029520496e-05
3.700850425212606183e+02 2.160783919784581557e-05
3.709854927463731542e+02 2.203341753392799553e-05
3.718859429714857470e+02 2.120501510267313474e-05
3.727863931965982829e+02 2.063209111496825009e-05
3.736868434217108188e+02 2.108241003694554493e-05
3.745872936468234116e+02 2.204359753172574100e-05
3.754877438719359475e+02 2.196800965670420866e-05
3.763881940970484834e+02 1.988100022372208750e-05
3.772886443221610762e+02 1.668809309662604363e-05
3.781890945472736121e+02 1.369259306111761404e-05
3.790895447723861480e+02 1.138990369649749703e-05
3.799899949974987408e+02 9.745720919383154399e-06
3.808904452226112767e+02 8.597476355220830114e-06
3.817908954477238694e+02 7.801260058695585060e-06
3.826913456728364054e+02 7.254972220302625834e-06
3.835917958979489413e+02 6.891922546760191185e-06
3.844922461230615340e+02 6.672273127218373648e-06
3.853926963481740700e+02 6.573795826908366982e-06
3.862931465732866059e+02 6.586132966557650785e-06
3.871935967983991986e+02 6.708757582185723526e-06
3.880940470235117346e+02 6.950528283823880136e-06
3.889944972486242705e+02 7.333098700454616223e-06
3.898949474737368632e+02 7.897307329759379840e-06
3.907953976988493991e+02 8.708790416310872439e-06
3.916958479239619351e+02 9.865462487835674878e-06
3.925962981490745278e+02 1.151150231515898116e-05
3.934967483741870637e+02 1.384787611944792150e-05
3.943971985992996565e+02 1.707728436942270619e-05
3.952976488244121924e+02 2.112618101980998894e-05
3.961980990495247283e+02 2.508853936658020516e-05
3.970985492746373211e+02 2.735827331598484621e-05
3.979989994997498570e+02 2.746753156363502426e-05
3.988994497248623929e+02 2.626094796968910137e-05
3.997998999499749857e+02 2.391288308100535847e-05
4.007003501750875216e+02 2.054922938499684638e-05
4.016008004002000575e+02 1.714139503976959742e-05
4.025012506253126503e+02 1.444742771867413395e-05
4.034017008504251862e+02 1.259602179191008283e-05
4.043021510755377221e+02 1.144943377054578856e-05
4.052026013006503149e+02 1.085491868784498626e-05
4.061030515257628508e+02 1.071293196997834316e-05
4.070035017508754436e+02 1.098974576657131123e-05
4.079039519759879795e+02 1.171770123097944460e-05
4.088044022011005154e+02 1.298902475290844333e-05
4.097048524262131082e+02 1.495816921438179980e-05
4.106053026513256441e+02 1.784099103185598028e-05
4.115057528764381800e+02 2.182024503410786328e-05
4.124062031015507728e+02 2.660551752230149236e-05
4.133066533266633087e+02 3.067593082107216421e-05
4.142071035517758446e+02 3.178396426717038087e-05
4.151075537768884374e+02 2.970859176721319473e-05
4.160080040020009733e+02 2.665820679960600187e-05
4.169084542271135092e+02 2.458912717617621767e-05
4.178089044522261020e+02 2.428949173665543389e-05
4.187093546773386379e+02 2.579694500208479547e-05
4.196098049024512306e+02 2.833499987539168100e-05
4.205102551275637666e+02 2.989685902465606134e-05
4.214107053526763025e+02 2.852730547247575465e-05
4.223111555777888952e+02 2.476447803056760604e-05
4.232116058029014312e+02 2.045064682827651682e-05
4.241120560280139671e+02 1.663671444479206875e-05
4.250125062531265598e+02 1.364669060832440764e-05
4.259129564782390958e+02 1.145397318833832834e-05
4.268134067033516317e+02 9.888413432648827738e-06
4.277138569284642244e+02 8.775187291524782674e-06
4.286143071535767604e+02 7.982287888530627078e-06
4.295147573786892963e+02 7.420024176327596484e-06
4.304152076038018890e+02 7.030871895785897607e-06
4.313156578289144250e+02 6.780180141220960155e-06
4.322161080540270177e+02 6.649690314084030178e-06
4.331165582791395536e+02 6.634348926878434974e-06
4.340170085042520896e+02 6.739435625130414447e-06
4.349174587293646823e+02 6.980391404709782121e-06
4.358179089544772182e+02 7.388370070297158130e-06
4.367183591795897541e+02 8.018257747124945083e-06
4.376188094047023469e+02 8.954136536060966820e-06
4.385192596298148828e+02 1.031525121422689938e-05
4.394197098549274187e+02 1.225824285413120247e-05
4.403201600800400115e+02 1.489281344364313656e-05
4.412206103051525474e+02 1.793102144261986082e-05
4.421210605302650833e+02 2.017314547274463748e-05
4.430215107553776761e+02 2.007020876456175538e-05
4.439219609804902120e+02 1.772682625815509894e-05
4.448224112056028048e+02 1.470747032090666419e-05
4.457228614307153407e+02 1.208353301581682312e-05
4.466233116558278766e+02 1.011746609313835504e-05
4.475237618809404694e+02 8.733941073015756245e-06
4.484242121060530053e+02 7.786617416090368870e-06
4.493246623311655412e+02 7.149649072699851910e-06
4.502251125562781340e+02 6.735183543167774811e-06
4.511255627813906699e+02 6.485907589183915758e-06
4.520260130065032058e+02 6.365477102707914168e-06
4.529264632316157986e+02 6.355347176454134156e-06
4.538269134567283345e+02 6.452883956599331198e-06
4.547273636818408704e+02 6.666009628708148330e-06
4.556278139069534632e+02 7.012452564031444053e-06
4.565282641320659991e+02 7.526513521857965690e-06
4.574287143571785919e+02 8.266143926364888912e-06
4.583291645822911278e+02 9.316568022629880086e-06
4.592296148074036637e+02 1.078027896873881251e-05
4.601300650325162565e+02 1.273596783672978190e-05
4.610305152576287924e+02 1.512081493209114296e-05
4.619309654827413283e+02 1.745869551377888528e-05
4.628314157078539210e+02 1.884241767079524805e-05
4.637318659329664570e+02 1.892034376011538310e-05
4.646323161580789929e+02 1.849341049410749695e-05
4.655327663831915856e+02 1.863813207554383740e-05
4.664332166083041216e+02 2.001433869859831055e-05
4.673336668334167143e+02 2.273163263933349434e-05
4.682341170585292502e+02 2.601179664594049131e-05
4.691345672836417862e+02 2.782600076946948727e-05
4.700350175087543789e+02 2.649313828939579897e-05
4.709354677338669148e+02 2.297276972760726806e-05
4.718359179589794508e+02 1.922672979050854411e-05
4.727363681840920435e+02 1.609311907450170997e-05
4.736368184092045794e+02 1.365461957442627585e-05
4.745372686343171154e+02 1.189706944137032067e-05
4.754377188594297081e+02 1.077377643567804166e-05
4.763381690845422440e+02 1.020827852260983828e-05
4.772386193096547800e+02 1.014780308889769128e-05
4.781390695347673727e+02 1.057213396906800134e-05
4.790395197598799086e+02 1.143152405007579118e-05
4.799399699849925014e+02 1.249722934569550172e-05
4.808404202101050373e+02 1.315738617690355657e-05
4.817408704352175732e+02 1.271739271392288446e-05
4.826413206603301660e+02 1.132346311903934534e-05
4.835417708854427019e+02 9.740408183250673141e-06
4.844422211105552378e+02 8.434991317396116944e-06
4.853426713356678306e+02 7.487174208992319115e-06
4.862431215607803665e+02 6.834472090683004737e-06
4.871435717858929024e+02 6.398203692981315884e-06
4.880440220110054952e+02 6.118596835100511275e-06
4.889444722361180311e+02 5.958870862494695403e-06
4.898449224612305670e+02 5.903806675385974159e-06
4.907453726863431598e+02 5.955947431644192926e-06
4.916458229114556957e+02 6.129998966955025016e-06
4.925462731365682885e+02 6.451103324019285819e-06
4.934467233616808244e+02 6.959301481407965147e-06
4.943471735867933603e+02 7.704836402504987520e-06
4.952476238119059531e+02 8.683481938945177253e-06
4.961480740370184890e+02 9.668316359584731390e-06
4.970485242621310249e+02 1.012402174119445839e-05
4.979489744872436177e+02 9.710853704885809528e-06
4.988494247123561536e+02 8.782758469020552424e-06
4.997498749374686895e+02 7.848046962084832010e-06
5.006503251625812823e+02 7.113750938000545580e-06
5.015507753876938182e+02 6.597112911547481277e-06
5.024512256128063541e+02 6.266843873131584966e-06
5.033516758379189469e+02 6.088938501693525229e-06
5.042521260630314828e+02 6.038100774650269204e-06
5.051525762881440755e+02 6.095954635937319493e-06
5.060530265132566115e+02 6.252858718327031219e-06
5.069534767383691474e+02 6.523596077912724329e-06
5.078539269634817401e+02 6.948398086750600239e-06
5.087543771885942760e+02 7.555348537022172458e-06
5.096548274137068120e+02 8.280954870679515219e-06
5.105552776388194047e+02 8.874249941888717440e-06
5.114557278639319406e+02 9.043167821315090468e-06
5.123561780890445334e+02 8.860711158483257452e-06
5.132566283141570693e+02 8.671147958167050551e-06
5.141570785392696052e+02 8.698707985421289511e-06
5.150575287643821412e+02 8.990086448356116879e-06
5.159579789894946771e+02 9.511492639677104999e-06
5.168584292146073267e+02 1.024067736169744480e-05
5.177588794397198626e+02 1.123807980561861393e-05
5.186593296648323985e+02 1.265221086178086281e-05
5.195597798899449344e+02 1.469394968278436231e-05
5.204602301150574704e+02 1.751456656557994201e-05
5.213606803401700063e+02 2.081386609978098370e-05
5.222611305652826559e+02 2.332457893624646550e-05
5.231615807903951918e+02 2.344118539305200949e-05
5.240620310155077277e+02 2.132278423482897970e-05
5.249624812406202636e+02 1.870713519504712202e-05
5.258629314657327996e+02 1.680151761769222565e-05
5.267633816908454492e+02 1.578020961192501710e-05
5.276638319159579851e+02 1.518376106731002561e-05
5.285642821410705210e+02 1.440215953871018325e-05
5.294647323661830569e+02 1.332051565127183395e-05
5.303651825912955928e+02 1.227895629269328708e-05
5.312656328164081287e+02 1.148417082996250984e-05
5.321660830415207784e+02 1.090847004689513067e-05
5.330665332666333143e+02 1.045609249319528378e-05
5.339669834917458502e+02 1.008428978007867659e-05
5.348674337168583861e+02 9.832429453070354650e-06
5.357678839419709220e+02 9.736191895803358219e-06
5.366683341670835716e+02 9.764720832778725720e-06
5.375687843921961075e+02 9.828568013120784485e-06
5.384692346173086435e+02 9.862639000797294580e-06
5.393696848424211794e+02 9.904668771774524934e-06
5.402701350675337153e+02 1.000978521010059935e-05
5.411705852926462512e+02 1.018031902227884699e-05
5.420710355177589008e+02 1.043467899001350810e-05
5.429714857428714367e+02 1.081358611536714202e-05
5.438719359679839727e+02 1.130674592367285367e-05
5.447723861930965086e+02 1.187599040764010017e-05
5.456728364182090445e+02 1.249846167873627149e-05
5.465732866433215804e+02 1.315738685525321275e-05
5.474737368684342300e+02 1.386580514690569687e-05
5.483741870935467659e+02 1.466527494878312281e-05
5.492746373186593019e+02 1.560536473064500233e-05
5.501750875437718378e+02 1.674050264423628060e-05
5.510755377688843737e+02 1.809191616293333239e-05
5.519759879939970233e+02 1.960655217365827300e-05
5.528764382191095592e+02 2.113907310237950530e-05
5.537768884442220951e+02 2.258351772433356855e-05
5.546773386693346310e+02 2.414615915306152392e-05
5.555777888944471670e+02 2.627297793300119533e-05
5.564782391195597029e+02 2.919738927391214153e-05
5.573786893446723525e+02 3.272130167732084047e-05
5.582791395697848884e+02 3.647617517623650050e-05
5.591795897948974243e+02 4.023539111021827821e-05
5.600800400200099602e+02 4.392255272013538450e-05
5.609804902451224962e+02 4.755498952235972078e-05
5.618809404702351458e+02 5.128798405100246647e-05
5.627813906953476817e+02 5.576481252373194142e-05
5.636818409204602176e+02 6.203550592268637892e-05
5.645822911455727535e+02 7.073499105162740514e-05
5.654827413706852894e+02 8.143039475946440002e-05
5.663831915957978254e+02 9.319838979583277552e-05
5.672836418209104750e+02 1.054629610419900758e-04
5.681840920460230109e+02 1.173682959964456886e-04
5.690845422711355468e+02 1.281292906281657044e-04
5.699849924962480827e+02 1.365946179357174610e-04
5.708854427213606186e+02 1.392365612939604951e-04
5.717858929464731546e+02 1.344226684623761993e-04
5.726863431715858042e+02 1.270426128662673190e-04
5.735867933966983401e+02 1.225304942738654425e-04
5.744872436218108760e+02 1.228161300246620826e-04
5.753876938469234119e+02 1.264178989283770000e-04
5.762881440720359478e+02 1.283775119033894903e-04
5.771885942971485974e+02 1.255125511573229743e-04
5.780890445222611334e+02 1.199149889837772146e-04
5.789894947473736693e+02 1.134253152668316219e-04
5.798899449724862052e+02 1.050978891065167500e-04
5.807903951975987411e+02 9.438596838861400642e-05
5.816908454227112770e+02 8.272118240534860709e-05
5.825912956478239266e+02 7.158838578110311409e-05
5.834917458729364625e+02 6.162107386989582145e-05
5.843921960980489985e+02 5.324242007375951222e-05
5.852926463231615344e+02 4.684238067987684566e-05
5.861930965482740703e+02 4.266101260228084911e-05
5.870935467733867199e+02 4.058990246399130054e-05
5.879939969984992558e+02 4.023433402959224290e-05
5.888944472236117917e+02 4.118939074841223885e-05
5.897948974487243277e+02 4.285158699314009625e-05
5.906953476738368636e+02 4.385456197612071271e-05
5.915957978989493995e+02 4.256220355655154834e-05
5.924962481240620491e+02 3.899499402169627336e-05
5.933966983491745850e+02 3.468465450724795489e-05
5.942971485742871209e+02 3.081852050444845698e-05
5.951975987993996569e+02 2.787102993115380583e-05
5.960980490245121928e+02 2.583556137886145612e-05
5.969984992496247287e+02 2.424257623890584433e-05
5.978989494747373783e+02 2.257880524830109322e-05
5.987993996998499142e+02 2.084123624594290237e-05
5.996998499249624501e+02 1.932255749919689489e-05
6.006003001500749860e+02 1.807044707012370714e-05
6.015007503751875220e+02 1.698475004182433239e-05
6.024012006003001716e+02 1.606747070155777228e-05
6.033016508254127075e+02 1.536766822742870994e-05
6.042021010505252434e+02 1.497145372189019423e-05
6.051025512756377793e+02 1.493787123288328298e-05
6.060030015007503152e+02 1.522775811065184437e-05
6.069034517258628512e+02 1.578748242326501831e-05
6.078039019509755008e+02 1.660214408977551625e-05
6.087043521760880367e+02 1.748254083478418693e-05
6.096048024012005726e+02 1.783103962440920140e-05
6.105052526263131085e+02 1.715652787680096609e-05
6.114057028514256444e+02 1.584792031663063882e-05
6.123061530765382940e+02 1.462316609377645028e-05
6.132066033016508300e+02 1.377522404288009986e-05
6.141070535267633659e+02 1.326143143192851156e-05
6.150075037518759018e+02 1.299567576505389163e-05
6.159079539769884377e+02 1.284940125826359694e-05
6.168084042021009736e+02 1.262910456255440610e-05
6.177088544272136232e+02 1.224581598689728053e-05
6.186093046523261592e+02 1.183008190186024827e-05
6.195097548774386951e+02 1.157590464973917158e-05
6.204102051025512310e+02 1.154418489130850113e-05
6.213106553276637669e+02 1.171090590628832325e-05
6.222111055527763028e+02 1.209726821622431391e-05
6.231115557778889524e+02 1.278488868254866348e-05
6.240120060030014884e+02 1.386630206380273829e-05
6.249124562281140243e+02 1.528918083343523042e-05
6.258129064532265602e+02 1.665989445006795441e-05
6.267133566783390961e+02 1.745200122822514110e-05
6.276138069034517457e+02 1.747501988635988726e-05
6.285142571285642816e+02 1.697867868293053952e-05
6.294147073536768175e+02 1.644551076921347340e-05
6.303151575787893535e+02 1.611884355294677379e-05
6.312156078039018894e+02 1.576667340715095901e-05
6.321160580290144253e+02 1.508674958810891722e-05
6.330165082541270749e+02 1.404400361336066663e-05
6.339169584792396108e+02 1.277565255649393009e-05
6.348174087043521467e+02 1.148361908251359252e-05
6.357178589294646827e+02 1.037658126179163741e-05
6.366183091545772186e+02 9.536835676847638717e-06
6.375187593796898682e+02 8.869385120720667880e-06
6.384192096048024041e+02 8.257360661369005927e-06
6.393196598299149400e+02 7.699869701476776907e-06
6.402201100550274759e+02 7.250923696679141581e-06
6.411205602801400119e+02 6.930122864653957583e-06
6.420210105052525478e+02 6.718978263473857324e-06
6.429214607303651974e+02 6.586199072112686467e-06
6.438219109554777333e+02 6.500639637267769735e-06
6.447223611805902692e+02 6.430943342397382555e-06
6.456228114057028051e+02 6.359740380196809600e-06
6.465232616308153411e+02 6.297037234039280501e-06
6.474237118559278770e+02 6.260924860405996898e-06
6.483241620810405266e+02 6.255886960382306442e-06
6.492246123061530625e+02 6.284483245055530450e-06
6.501250625312655984e+02 6.370234129661085541e-06
6.510255127563781343e+02 6.549953065207651257e-06
6.519259629814906702e+02 6.844098439858690863e-06
6.528264132066033198e+02 7.217336285831127082e-06
6.537268634317158558e+02 7.548206333329953211e-06
6.546273136568283917e+02 7.703270327871209854e-06
6.555277638819409276e+02 7.669156227596071396e-06
6.564282141070534635e+02 7.526371300432362171e-06
6.573286643321659994e+02 7.338157084937926428e-06
6.582291145572786490e+02 7.138827214786587815e-06
6.591295647823911850e+02 6.988183840620090902e-06
6.600300150075037209e+02 6.922694765083110217e-06
6.609304652326162568e+02 6.912540958543302197e-06
6.618309154577287927e+02 6.919973500512764771e-06
6.627313656828414423e+02 6.943546516189804264e-06
6.636318159079539782e+02 6.994907488816033017e-06
6.645322661330665142e+02 7.095253997160281878e-06
6.654327163581790501e+02 7.244156970319884115e-06
6.663331665832915860e+02 7.375509268986850239e-06
6.672336168084041219e+02 7.393461537467060897e-06
6.681340670335167715e+02 7.261831383490581681e-06
6.690345172586293074e+02 7.042339398256533545e-06
6.699349674837418434e+02 6.846359631615185624e-06
6.708354177088543793e+02 6.748051915029729993e-06
6.717358679339669152e+02 6.756877431756820156e-06
6.726363181590794511e+02 6.849350959958667333e-06
6.735367683841921007e+02 6.979791315303640572e-06
6.744372186093046366e+02 7.072000335608823838e-06
6.753376688344171725e+02 7.092507312470636616e-06
6.762381190595297085e+02 7.098246288134435410e-06
6.771385692846422444e+02 7.154138706403260787e-06
6.780390195097548940e+02 7.279036720994362791e-06
6.789394697348674299e+02 7.471929998957549741e-06
6.798399199599799658e+02 7.700367027390453317e-06
6.807403701850925017e+02 7.869894308738451715e-06
6.816408204102050377e+02 7.879816812254908560e-06
6.825412706353175736e+02 7.759031369008474914e-06
6.834417208604302232e+02 7.627891727316367241e-06
6.843421710855427591e+02 7.534803032065226023e-06
6.852426213106552950e+02 7.432764507018457176e-06
6.861430715357678309e+02 7.278709277336300837e-06
6.870435217608803669e+02 7.123289223394668678e-06
6.879439719859930165e+02 7.009937310980943382e-06
6.888444222111055524e+02 6.871346328770147017e-06
6.897448724362180883e+02 6.635902377482438530e-06
6.906453226613306242e+02 6.344701526352890264e-06
6.915457728864431601e+02 6.075292307362449030e-06
6.924462231115556961e+02 5.862279171050404084e-06
6.933466733366683457e+02 5.705717953140213249e-06
6.942471235617808816e+02 5.592132064763904767e-06
6.951475737868934175e+02 5.500559748776604277e-06
6.960480240120059534e+02 5.411416039056568914e-06
6.969484742371184893e+02 5.321680293805848295e-06
6.978489244622311389e+02 5.244818491235175742e-06
6.987493746873436749e+02 5.191849349128161346e-06
6.996498249124562108e+02 5.163720376790261847e-06
7.005502751375687467e+02 5.157502978031365381e-06
7.014507253626812826e+02 5.168271710786870108e-06
7.023511755877938185e+02 5.191015595829848204e-06
7.032516258129064681e+02 5.221235265919859572e-06
7.041520760380190040e+02 5.253887351570102477e-06
7.050525262631315400e+02 5.287661646093732028e-06
7.059529764882440759e+02 5.322898491035783784e-06
7.068534267133566118e+02 5.358779570668544101e-06
7.077538769384691477e+02 5.393788851172886446e-06
7.086543271635817973e+02 5.421268861915145086e-06
7.095547773886943332e+02 5.425751493325734049e-06
7.104552276138068692e+02 5.401915969732424853e-06
7.113556778389194051e+02 5.368958255370216553e-06
7.122561280640319410e+02 5.350434180212847895e-06
7.131565782891445906e+02 5.358246692928092490e-06
7.140570285142571265e+02 5.391513930108398503e-06
7.149574787393696624e+02 5.441035939772852457e-06
7.158579289644821984e+02 5.501588281087610448e-06
7.167583791895947343e+02 5.574489829815015107e-06
7.176588294147072702e+02 5.657368655704188192e-06
7.185592796398199198e+02 5.749180287377631121e-06
7.194597298649324557e+02 5.857156011313266031e-06
7.203601800900449916e+02 5.989845561033875616e-06
7.212606303151575275e+02 6.161382506025946165e-06
7.221610805402700635e+02 6.398800647650990515e-06
7.230615307653827131e+02 6.733564566972766305e-06
7.239619809904952490e+02 7.170408678581059015e-06
7.248624312156077849e+02 7.646883283708056048e-06
7.257628814407203208e+02 8.051677474065207721e-06
7.266633316658328567e+02 8.350076559807255528e-06
7.275637818909453927e+02 8.660054798852847015e-06
7.284642321160580423e+02 9.126852995502441815e-06
7.293646823411705782e+02 9.710004445754633642e-06
7.302651325662831141e+02 1.008426669778308869e-05
7.311655827913956500e+02 9.909347674455974852e-06
7.320660330165081859e+02 9.307357362757095144e-06
7.329664832416207219e+02 8.665703954217428742e-06
7.338669334667333715e+02 8.206719672575487655e-06
7.347673836918459074e+02 7.974508386858576503e-06
7.356678339169584433e+02 7.913786441407632687e-06
7.365682841420709792e+02 7.909229515370535448e-06
7.374687343671835151e+02 7.847060658282368619e-06
7.383691845922961647e+02 7.647014321487387390e-06
7.392696348174087007e+02 7.297507907364053067e-06
7.401700850425212366e+02 6.887355654394426587e-06
7.410705352676337725e+02 6.519775401581506593e-06
7.419709854927463084e+02 6.240425997274490947e-06
7.428714357178588443e+02 6.046277751669457045e-06
7.437718859429714939e+02 5.916450796747150655e-06
7.446723361680840299e+02 5.829445081377143949e-06
7.455727863931965658e+02 5.764956746163807148e-06
7.464732366183091017e+02 5.705313563495872146e-06
7.473736868434216376e+02 5.645705510117835710e-06
7.482741370685342872e+02 5.593549062016412311e-06
7.491745872936468231e+02 5.556362937635502971e-06
7.500750375187593590e+02 5.536769092664144328e-06
7.509754877438718950e+02 5.534106976285589848e-06
7.518759379689844309e+02 5.545776245650802125e-06
7.527763881940969668e+02 5.565527161985180705e-06
7.536768384192096164e+02 5.582159477042654846e-06
7.545772886443221523e+02 5.587873841730785065e-06
7.554777388694346882e+02 5.587320981123472461e-06
7.563781890945472242e+02 5.590248062498917154e-06
7.572786393196597601e+02 5.602957900958612318e-06
7.581790895447722960e+02 5.627447211655418798e-06
7.590795397698849456e+02 5.663662586131400324e-06
7.599799899949974815e+02 5.711276181484432280e-06
7.608804402201100174e+02 5.769286935339610779e-06
7.617808904452225534e+02 5.836511152225946621e-06
7.626813406703350893e+02 5.914847893249447479e-06
7.635817908954477389e+02 6.008358519685365616e-06
7.644822411205602748e+02 6.116940486613176835e-06
7.653826913456728107e+02 6.236047590408492794e-06
7.662831415707853466e+02 6.363439402226396156e-06
7.671835917958978825e+02 6.503901686109037784e-06
7.680840420210104185e+02 6.674951486238441498e-06
7.689844922461230681e+02 6.907109904049668996e-06
7.698849424712356040e+02 7.235030326823378996e-06
7.707853926963481399e+02 7.697014343297709421e-06
7.716858429214606758e+02 8.331413897753188775e-06
7.725862931465732117e+02 9.151067702928635553e-06
7.734867433716858613e+02 1.012131221335220575e-05
7.743871935967983973e+02 1.116574068515240471e-05
7.752876438219109332e+02 1.211193244056034106e-05
7.761880940470234691e+02 1.263410218479126108e-05
7.770885442721360050e+02 1.241026947284609762e-05
7.779889944972485409e+02 1.146564690635038161e-05
7.788894447223611905e+02 1.025129196325135466e-05
7.797898949474737265e+02 9.180309065895667214e-06
7.806903451725862624e+02 8.379376148524603991e-06
7.815907953976987983e+02 7.820914788429270172e-06
7.824912456228113342e+02 7.450378031523027908e-06
7.833916958479238701e+02 7.222178383678145701e-06
7.842921460730365197e+02 7.101974430768056160e-06
7.851925962981490557e+02 7.064792843236103741e-06
7.860930465232615916e+02 7.090352330893268658e-06
7.869934967483741275e+02 7.141714166179688393e-06
7.878939469734866634e+02 7.142880580018627214e-06
7.887943971985993130e+02 7.035885726219311171e-06
7.896948474237118489e+02 6.859483091898249535e-06
7.905952976488243849e+02 6.687457351784098302e-06
7.914957478739369208e+02 6.552264075747555864e-06
7.923961980990494567e+02 6.452127503322195187e-06
7.932966483241619926e+02 6.378803028314994820e-06
7.941970985492746422e+02 6.327841096474125635e-06
7.950975487743871781e+02 6.294785178116380295e-06
7.959979989994997140e+02 6.272687268822066728e-06
7.968984492246122500e+02 6.255242689707641825e-06
7.977988994497247859e+02 6.240573926936577548e-06
7.986993496748374355e+02 6.231367087208690178e-06
7.995997998999499714e+02 6.230255896395658811e-06
8.005002501250625073e+02 6.237659929186519433e-06
8.014007003501750432e+02 6.253173343457435994e-06
8.023011505752875792e+02 6.276772610337967146e-06
8.032016008004001151e+02 6.309134023597731396e-06
8.041020510255127647e+02 6.350744850605369246e-06
8.050025012506253006e+02 6.400070025839257965e-06
8.059029514757378365e+02 6.453717147078565889e-06
8.068034017008503724e+02 6.509191713897263042e-06
8.077038519259629084e+02 6.566554251349031052e-06
8.086043021510754443e+02 6.629414767237816673e-06
8.095047523761880939e+02 6.704775850381478244e-06
8.104052026013006298e+02 6.795832103268203134e-06
8.113056528264131657e+02 6.891884909595549106e-06
8.122061030515257016e+02 6.975422936881894638e-06
8.131065532766382375e+02 7.051977806472682239e-06
8.140070035017508872e+02 7.150552423218259728e-06
8.149074537268634231e+02 7.296642791574857176e-06
8.158079039519759590e+02 7.506339795588612583e-06
8.167083541770884949e+02 7.793084973830236701e-06
8.176088044022010308e+02 8.175659788932380576e-06
8.185092546273135667e+02 8.691304625182943294e-06
8.194097048524262163e+02 9.395656930782444072e-06
8.203101550775387523e+02 1.033626702193748521e-05
8.212106053026512882e+02 1.147291599065087417e-05
8.221110555277638241e+02 1.249983506120773501e-05
8.230115057528763600e+02 1.285727578284972497e-05
8.239119559779890096e+02 1.230355235911821944e-05
8.248124062031015455e+02 1.123069269417785815e-05
8.257128564282140815e+02 1.014733872912889259e-05
8.266133066533266174e+02 9.288332660738616084e-06
8.275137568784391533e+02 8.669287242459963708e-06
8.284142071035516892e+02 8.233616527455682292e-06
8.293146573286643388e+02 7.925319246135891079e-06
8.302151075537768747e+02 7.705944873507259050e-06
8.311155577788894107e+02 7.551071754891708252e-06
8.320160080040019466e+02 7.445343068253082065e-06
8.329164582291144825e+02 7.379573517223216055e-06
8.338169084542270184e+02 7.347776666820437845e-06
8.347173586793396680e+02 7.346489805673050748e-06
8.356178089044522039e+02 7.376641770327145650e-06
8.365182591295647399e+02 7.441799154730095550e-06
8.374187093546772758e+02 7.538734120223292732e-06
8.383191595797898117e+02 7.639389194808479024e-06
8.392196098049024613e+02 7.682242775562777751e-06
8.401200600300149972e+02 7.628935482028913988e-06
8.410205102551275331e+02 7.520590558252244180e-06
8.419209604802400690e+02 7.417033695563129771e-06
8.428214107053526050e+02 7.341834657971847055e-06
8.437218609304651409e+02 7.293218822692816825e-06
8.446223111555777905e+02 7.263607892685776132e-06
8.455227613806903264e+02 7.247558661337555906e-06
8.464232116058028623e+02 7.241799692375300820e-06
8.473236618309153982e+02 7.244524416852160356e-06
8.482241120560279342e+02 7.254586499315696179e-06
8.491245622811405838e+02 7.270413179608476642e-06
8.500250125062531197e+02 7.290356350404387038e-06
8.509254627313656556e+02 7.314096041245540796e-06
8.518259129564781915e+02 7.342483423678001710e-06
8.527263631815907274e+02 7.376315513803596093e-06
8.536268134067032634e+02 7.416061955695219424e-06
8.545272636318159130e+02 7.461868878244805703e-06
8.554277138569284489e+02 7.513973539243254538e-06
8.563281640820409848e+02 7.572235865223728590e-06
8.572286143071535207e+02 7.635502149562530734e-06
8.581290645322660566e+02 7.704420514717205630e-06
8.590295147573785925e+02 7.782883014235349013e-06
8.599299649824912422e+02 7.875714252772756063e-06
8.608304152076037781e+02 7.988307230386458357e-06
8.617308654327163140e+02 8.127005574459297228e-06
8.626313156578288499e+02 8.299730333928295750e-06
8.635317658829413858e+02 8.516726267059010895e-06
8.644322161080540354e+02 8.792229069407744469e-06
8.653326663331665713e+02 9.152098516160908439e-06
8.662331165582791073e+02 9.641629706444783900e-06
8.671335667833916432e+02 1.032195880857399452e-05
8.680340170085041791e+02 1.125386020839713692e-05
8.689344672336167150e+02 1.244316241486204064e-05
8.698349174587293646e+02 1.369341015083447804e-05
8.707353676838419005e+02 1.445802814324025202e-05
8.716358179089544365e+02 1.419498639288866569e-05
8.725362681340669724e+02 1.311618090935544465e-05
8.734367183591795083e+02 1.189058290009289361e-05
8.743371685842921579e+02 1.089601075847120338e-05
8.752376188094046938e+02 1.018693724748247330e-05
8.761380690345172297e+02 9.706165856761670815e-06
8.770385192596297657e+02 9.386435060795204855e-06
8.779389694847423016e+02 9.177456850072905582e-06
8.788394197098548375e+02 9.046262972188957846e-06
8.797398699349674871e+02 8.966595970321360317e-06
8.806403201600800230e+02 8.916252957677293478e-06
8.815407703851925589e+02 8.888051953888221791e-06
8.824412206103050949e+02 8.890029789001585613e-06
8.833416708354176308e+02 8.929670017928524508e-06
8.842421210605301667e+02 9.006880729637521869e-06
8.851425712856428163e+02 9.122315414775042879e-06
8.860430215107553522e+02 9.285535508239018220e-06
8.869434717358678881e+02 9.496110922116317144e-06
8.878439219609804240e+02 9.697109303413503964e-06
8.887443721860929600e+02 9.768712918238226130e-06
8.896448224112056096e+02 9.652879702393051876e-06
8.905452726363181455e+02 9.437212181822492784e-06
8.914457228614306814e+02 9.228783342416422127e-06
8.923461730865432173e+02 9.071838311321463261e-06
8.932466233116557532e+02 8.968682464764050945e-06
8.941470735367682892e+02 8.907983932034028529e-06
8.950475237618809388e+02 8.878047692835600707e-06
8.959479739869934747e+02 8.870545805248278970e-06
8.968484242121060106e+02 8.879856314250487995e-06
8.977488744372185465e+02 8.900922298906402310e-06
8.986493246623310824e+02 8.929365550895873902e-06
8.995497748874437320e+02 8.963351384928214551e-06
9.004502251125562680e+02 9.004026999916815650e-06
9.013506753376688039e+02 9.053692943232853326e-06
9.022511255627813398e+02 9.113925356031970590e-06
9.031515757878938757e+02 9.185563531078525608e-06
9.040520260130064116e+02 9.268853896814723659e-06
9.049524762381190612e+02 9.363866271758620896e-06
9.058529264632315972e+02 9.473244767749965160e-06
9.067533766883441331e+02 9.602577927073238122e-06
9.076538269134566690e+02 9.757939055646124460e-06
9.085542771385692049e+02 9.947663780424287241e-06
9.094547273636817408e+02 1.018640768377938850e-05
9.103551775887943904e+02 1.049672866636920073e-05
9.112556278139069263e+02 1.091140482147065286e-05
9.121560780390194623e+02 1.147866359039411189e-05
9.130565282641319982e+02 1.226796396447110304e-05
9.139569784892445341e+02 1.336416028541074038e-05
9.148574287143571837e+02 1.481441578639764584e-05
9.157578789394697196e+02 1.646202315646921711e-05
9.166583291645822555e+02 1.770935391643391584e-05
9.175587793896947915e+02 1.779713651123753453e-05
9.184592296148073274e+02 1.674770295525379436e-05
9.193596798399198633e+02 1.527841226678783163e-05
9.202601300650325129e+02 1.394440253983410622e-05
9.211605802901450488e+02 1.293528827722616223e-05
9.220610305152575847e+02 1.223687305937852663e-05
9.229614807403701207e+02 1.176884306170611728e-05
9.238619309654826566e+02 1.144771129965248145e-05
9.247623811905953062e+02 1.121382022889889953e-05
9.256628314157078421e+02 1.103794575824300951e-05
9.265632816408203780e+02 1.091345029001514631e-05
9.274637318659329139e+02 1.084198495823836141e-05
9.283641820910454499e+02 1.082248920012831864e-05
9.292646323161579858e+02 1.085211918043522707e-05
9.301650825412706354e+02 1.093283143477959055e-05
9.310655327663831713e+02 1.107618288803065805e-05
9.319659829914957072e+02 1.130213691551177131e-05
9.328664332166082431e+02 1.162958544791091940e-05
9.337668834417207790e+02 1.204614540273752674e-05
9.346673336668334287e+02 1.244368712344932467e-05
9.355677838919459646e+02 1.261548622985258660e-05
9.364682341170585005e+02 1.248213954750559385e-05
9.373686843421710364e+02 1.221165200512030300e-05
9.382691345672835723e+02 1.196914701769596555e-05
9.391695847923961082e+02 1.178653865704591732e-05
9.400700350175087578e+02 1.164745178641581958e-05
9.409704852426212938e+02 1.155567625066761802e-05
9.418709354677338297e+02 1.151521734317481003e-05
9.427713856928463656e+02 1.150616099153859321e-05
9.436718359179589015e+02 1.150454336920928386e-05
9.445722861430714374e+02 1.151171157272471068e-05
9.454727363681840870e+02 1.154267694800684346e-05
9.463731865932966230e+02 1.160734504699545594e-05
9.472736368184091589e+02 1.170909369369956212e-05
9.481740870435216948e+02 1.184752073603722573e-05
9.490745372686342307e+02 1.202370638068036866e-05
9.499749874937468803e+02 1.223841163936497462e-05
9.508754377188594162e+02 1.248664962202495594e-05
9.517758879439719522e+02 1.277408424456875746e-05
9.526763381690844881e+02 1.313493083546363826e-05
9.535767883941970240e+02 1.362043253657416249e-05
9.544772386193095599e+02 1.429105605797151503e-05
9.553776888444222095e+02 1.521982908783327174e-05
9.562781390695347454e+02 1.648332541055619218e-05
9.571785892946472813e+02 1.813472447261603270e-05
9.580790395197598173e+02 2.014727902189389274e-05
9.589794897448723532e+02 2.226954307177241702e-05
9.598799399699850028e+02 2.392063486510383850e-05
9.607803901950975387e+02 2.438803652373022174e-05
9.616808404202100746e+02 2.331490086962364054e-05
9.625812906453226105e+02 2.126284320248400877e-05
9.634817408704351465e+02 1.920300728824730563e-05
9.643821910955476824e+02 1.760276637469457257e-05
9.652826413206603320e+02 1.645526996530503861e-05
9.661830915457728679e+02 1.564330650800567862e-05
9.670835417708854038e+02 1.509653141505353199e-05
9.679839919959979397e+02 1.477060865234512201e-05
9.688844422211104757e+02 1.462129413786856145e-05
9.697848924462230116e+02 1.460688490246305972e-05
9.706853426713356612e+02 1.469899021648759142e-05
9.715857928964481971e+02 1.487587349049365623e-05
9.724862431215607330e+02 1.512014566294526688e-05
9.733866933466732689e+02 1.539939778982190468e-05
9.742871435717858049e+02 1.564671108397761845e-05
9.751875937968984545e+02 1.587684551326548597e-05
9.760880440220109904e+02 1.622021661467218720e-05
9.769884942471235263e+02 1.673687210966513786e-05
9.778889444722360622e+02 1.727937144119192004e-05
9.787893946973485981e+02 1.754216800478086604e-05
9.796898449224611340e+02 1.734735336504219521e-05
9.805902951475737837e+02 1.686462109142392032e-05
9.814907453726863196e+02 1.637322576627692374e-05
9.823911955977988555e+02 1.602735777839462588e-05
9.832916458229113914e+02 1.586889642387909067e-05
9.841920960480239273e+02 1.587105859670168010e-05
9.850925462731365769e+02 1.595577103043799473e-05
9.859929964982491128e+02 1.603644036517301420e-05
9.868934467233616488e+02 1.609413373453817548e-05
9.877938969484741847e+02 1.616517616024516920e-05
9.886943471735867206e+02 1.629535071415723517e-05
9.895947973986992565e+02 1.651837810921398953e-05
9.904952476238119061e+02 1.684247142645768451e-05
9.913956978489244420e+02 1.728400902060420907e-05
9.922961480740369780e+02 1.789621662573877994e-05
9.931965982991495139e+02 1.875223975840816084e-05
9.940970485242620498e+02 1.988734850695134985e-05
9.949974987493745857e+02 2.121885972805081082e-05
9.958979489744872353e+02 2.260264233305487032e-05
9.967983991995997712e+02 2.404186985288037096e-05
9.976988494247123072e+02 2.568088249390939487e-05
9.985992996498248431e+02 2.754690674898731343e-05
9.994997498749373790e+02 2.928306316436548947e-05
1.000400200100050029e+03 3.036572648992949194e-05
1.001300650325162565e+03 3.037768022489450233e-05
1.002201100550275100e+03 2.903081655890181234e-05
1.003101550775387636e+03 2.673634396757641955e-05
1.004002001000500172e+03 2.438564801439444105e-05
1.004902451225612708e+03 2.251886226946289663e-05
1.005802901450725358e+03 2.117921466356695637e-05
1.006703351675837894e+03 2.022038101415972282e-05
1.007603801900950430e+03 1.951239813393057035e-05
1.008504252126062966e+03 1.899465634982582617e-05
1.009404702351175501e+03 1.865529014927285692e-05
1.010305152576288151e+03 1.846933782376943543e-05
1.011205602801400687e+03 1.840986241917452252e-05
1.012106053026513223e+03 1.848156355358367308e-05
1.013006503251625759e+03 1.868987076972195978e-05
1.013906953476738295e+03 1.901453337668344861e-05
1.014807403701850831e+03 1.943613156521979338e-05
1.015707853926963480e+03 1.999924617958562397e-05
1.016608304152076016e+03 2.078392300861300261e-05
1.017508754377188552e+03 2.176106129677773983e-05
1.018409204602301088e+03 2.266147987015158907e-05
1.019309654827413624e+03 2.301078693743124600e-05
1.020210105052526160e+03 2.259014558421662032e-05
1.021110555277638809e+03 2.176930818212990216e-05
1.022011005502751345e+03 2.104958721513454093e-05
1.022911455727863881e+03 2.066272152121392664e-05
1.023811905952976417e+03 2.062237192582109746e-05
1.024712356178089067e+03 2.083656400047090751e-05
1.025612806403201603e+03 2.113170994595646581e-05
1.026513256628314139e+03 2.133256734509412074e-05
1.027413706853426675e+03 2.141427801153558832e-05
1.028314157078539210e+03 2.149137341011333774e-05
1.029214607303651746e+03 2.168521242253797760e-05
1.030115057528764282e+03 2.206666610122266014e-05
1.031015507753876818e+03 2.270351872930811675e-05
1.031915957978989354e+03 2.369591447307606597e-05
1.032816408204101890e+03 2.516672546275263472e-05
1.033716858429214653e+03 2.720453092335056386e-05
1.034617308654327189e+03 2.964266206748705803e-05
1.035517758879439725e+03 3.185513699129038765e-05
1.036418209104552261e+03 3.322449795790687521e-05
1.037318659329664797e+03 3.391577264678081430e-05
1.038219109554777333e+03 3.425744796355619702e-05
1.039119559779889869e+03 3.382293115292490292e-05
1.040020010005002405e+03 3.208091698750082906e-05
1.040920460230114941e+03 2.953164634184239518e-05
1.041820910455227477e+03 2.709998012801719187e-05
1.042721360680340013e+03 2.522508701603255277e-05
1.043621810905452776e+03 2.393491984667094448e-05
1.044522261130565312e+03 2.312176836012080962e-05
1.045422711355677848e+03 2.266094091905841991e-05
1.046323161580790384e+03 2.244242877655683167e-05
1.047223611805902920e+03 2.238702027006607976e-05
1.048124062031015455e+03 2.243938340017262253e-05
1.049024512256127991e+03 2.256505617616385049e-05
1.049924962481240527e+03 2.277016952127045507e-05
1.050825412706353063e+03 2.309664470102122021e-05
1.051725862931465599e+03 2.360165314915369910e-05
1.052626313156578135e+03 2.435799360742384742e-05
1.053526763381690898e+03 2.543545853243415919e-05
1.054427213606803434e+03 2.675316480306814745e-05
1.055327663831915970e+03 2.789731424738736620e-05
1.056228114057028506e+03 2.831327833848844877e-05
1.057128564282141042e+03 2.799485166930627966e-05
1.058029014507253578e+03 2.743706786815963117e-05
1.058929464732366114e+03 2.690298497307508458e-05
1.059829914957478650e+03 2.639643452859358726e-05
1.060730365182591186e+03 2.601142975304779334e-05
1.061630815407703722e+03 2.587071777009066238e-05
1.062531265632816257e+03 2.600305196603047258e-05
1.063431715857929021e+03 2.639643618945274091e-05
1.064332166083041557e+03 2.706549542972196571e-05
1.065232616308154093e+03 2.806322992448590957e-05
1.066133066533266629e+03 2.939171721082850465e-05
1.067033516758379164e+03 3.099843710930850994e-05
1.067933966983491700e+03 3.285004968911633223e-05
1.068834417208604236e+03 3.467983850378505300e-05
1.069734867433716772e+03 3.598626007950675633e-05
1.070635317658829308e+03 3.680788597374636163e-05
1.071535767883941844e+03 3.762297878336236348e-05
1.072436218109054380e+03 3.818160863204446800e-05
1.073336668334167143e+03 3.750731564901060351e-05
1.074237118559279679e+03 3.543567404984645147e-05
1.075137568784392215e+03 3.294000162297396495e-05
1.076038019009504751e+03 3.084206026954889392e-05
1.076938469234617287e+03 2.935483639765609090e-05
1.077838919459729823e+03 2.839672743677471703e-05
1.078739369684842359e+03 2.785488998025248652e-05
1.079639819909954895e+03 2.761666533534567027e-05
1.080540270135067431e+03 2.754197833968539724e-05
1.081440720360179967e+03 2.753770099973454837e-05
1.082341170585292502e+03 2.763009926233242150e-05
1.083241620810405038e+03 2.789496452991439761e-05
1.084142071035517802e+03 2.840728836592965333e-05
1.085042521260630338e+03 2.921878827619788375e-05
1.085942971485742873e+03 3.033936087223591810e-05
1.086843421710855409e+03 3.171327739931231455e-05
1.087743871935967945e+03 3.308123840913007466e-05
1.088644322161080481e+03 3.390784828719212353e-05
1.089544772386193017e+03 3.381986748069546080e-05
1.090445222611305553e+03 3.307806897599174507e-05
1.091345672836418089e+03 3.216123366596880252e-05
1.092246123061530625e+03 3.138989967765365907e-05
1.093146573286643161e+03 3.095900367155778119e-05
1.094047023511755924e+03 3.094800237736054511e-05
1.094947473736868460e+03 3.134777989486705349e-05
1.095847923961980996e+03 3.211673232260375116e-05
1.096748374187093532e+03 3.323946802944628551e-05
1.097648824412206068e+03 3.475039308489677676e-05
1.098549274637318604e+03 3.663193220517144258e-05
1.099449724862431140e+03 3.864630093939321276e-05
1.100350175087543676e+03 4.040267656226292301e-05
1.101250625312656211e+03 4.182265837145688714e-05
1.102151075537768747e+03 4.301935217416282735e-05
1.103051525762881283e+03 4.338281419360588611e-05
1.103951975987994047e+03 4.210835782856590844e-05
1.104852426213106583e+03 3.970816205374695418e-05
1.105752876438219118e+03 3.732071738097727604e-05
1.106653326663331654e+03 3.550746920796294678e-05
1.107553776888444190e+03 3.432193358723555982e-05
1.108454227113556726e+03 3.363717569564800904e-05
1.109354677338669262e+03 3.328893093029960070e-05
1.110255127563781798e+03 3.315433471466587703e-05
1.111155577788894334e+03 3.321791546732333740e-05
1.112056028014006870e+03 3.353197629902416991e-05
1.112956478239119406e+03 3.413907570460018105e-05
1.113856928464232169e+03 3.506371228609328640e-05
1.114757378689344705e+03 3.632418785876041458e-05
1.115657828914457241e+03 3.783202254359341581e-05
1.116558279139569777e+03 3.919585847131379781e-05
1.117458729364682313e+03 3.981933293349219645e-05
1.118359179589794849e+03 3.955102776268095620e-05
1.119259629814907385e+03 3.891277175235715945e-05
1.120160080040019920e+03 3.845799066014421718e-05
1.121060530265132456e+03 3.841738813907459338e-05
1.121960980490244992e+03 3.878044191533684156e-05
1.122861430715357528e+03 3.951956581130003344e-05
1.123761880940470292e+03 4.072703522096704411e-05
1.124662331165582827e+03 4.244609628191570828e-05
1.125562781390695363e+03 4.449308134818336633e-05
1.126463231615807899e+03 4.655548851113381129e-05
1.127363681840920435e+03 4.828725315940830647e-05
1.128264132066032971e+03 4.904742098762312558e-05
1.129164582291145507e+03 4.823760635587609876e-05
1.130065032516258043e+03 4.626977389665752600e-05
1.130965482741370579e+03 4.419036654141434914e-05
1.131865932966483115e+03 4.263542996254607721e-05
1.132766383191595651e+03 4.173263822826885186e-05
1.133666833416708187e+03 4.139470513163255101e-05
1.134567283641820950e+03 4.150587763052450451e-05
1.135467733866933486e+03 4.201026540021949397e-05
1.136368184092046022e+03 4.292117070809772051e-05
1.137268634317158558e+03 4.423733338799244822e-05
1.138169084542271094e+03 4.574621763893480658e-05
1.139069534767383630e+03 4.693274070233791539e-05
1.139969984992496165e+03 4.741529130174405106e-05
1.140870435217608701e+03 4.752562324819716803e-05
1.141770885442721237e+03 4.787070791618618895e-05
1.142671335667833773e+03 4.864441040260373026e-05
1.143571785892946309e+03 4.955074394140312143e-05
1.144472236118059072e+03 4.998473173040809866e-05
1.145372686343171608e+03 4.963873909006584300e-05
1.146273136568284144e+03 4.895123084589963266e-05
1.147173586793396680e+03 4.852275706901584953e-05
1.148074037018509216e+03 4.860074224277592463e-05
1.148974487243621752e+03 4.915243190397718879e-05
1.149874937468734288e+03 5.006239804789822730e-05
1.150775387693846824e+03 5.127987133977553446e-05
1.151675837918959360e+03 5.288653319344862984e-05
1.152576288144071896e+03 5.510265018555649235e-05
1.153476738369184432e+03 5.823929955959067725e-05
1.154377188594297195e+03 6.269220882738478929e-05
1.155277638819409731e+03 6.885601335128414152e-05
1.156178089044522267e+03 7.655030202619947789e-05
1.157078539269634803e+03 8.385173120610310636e-05
1.157978989494747339e+03 8.694444073328500455e-05
1.158879439719859874e+03 8.389695508167116424e-05
1.159779889944972410e+03 7.754967869169442345e-05
1.160680340170084946e+03 7.152658438704735840e-05
1.161580790395197482e+03 6.719939163840355639e-05
1.162481240620310018e+03 6.445593459957415583e-05
1.163381690845422554e+03 6.277693284971125136e-05
1.164282141070535317e+03 6.155013524160577495e-05
1.165182591295647853e+03 6.033771014894809156e-05
1.166083041520760389e+03 5.913842185523771522e-05
1.166983491745872925e+03 5.818668043918814344e-05
1.167883941970985461e+03 5.763596645199858202e-05
1.168784392196097997e+03 5.747416838350589508e-05
1.169684842421210533e+03 5.762585699605036907e-05
1.170585292646323069e+03 5.803849392845927910e-05
1.171485742871435605e+03 5.869445582458145344e-05
1.172386193096548141e+03 5.959348107567413283e-05
1.173286643321660677e+03 6.074130567618640282e-05
1.174187093546773440e+03 6.215055460162656551e-05
1.175087543771885976e+03 6.384457727110677831e-05
1.175987993996998512e+03 6.585558570973365576e-05
1.176888444222111048e+03 6.822496131048193073e-05
1.177788894447223583e+03 7.101401336271362667e-05
1.178689344672336119e+03 7.430168164723321153e-05
1.179589794897448655e+03 7.820440510246546033e-05
1.180490245122561191e+03 8.293720132802153745e-05
1.181390695347673727e+03 8.880734530503505916e-05
1.182291145572786263e+03 9.622065920297552804e-05
1.183191595797898799e+03 1.057775653465507971e-04
1.184092046023011562e+03 1.183861452408362184e-04
1.184992496248124098e+03 1.354303798279507174e-04
1.185892946473236634e+03 1.590166038974492424e-04
1.186793396698349170e+03 1.921543735314747300e-04
1.187693846923461706e+03 2.384282604750245804e-04
1.188594297148574242e+03 2.997163553243667737e-04
1.189494747373686778e+03 3.694859194525649377e-04
1.190395197598799314e+03 4.234788028087953802e-04
1.191295647823911850e+03 4.288372761588166810e-04
1.192196098049024386e+03 3.845008449119382329e-04
1.193096548274136921e+03 3.228828562208997124e-04
1.193996998499249457e+03 2.675095621391172405e-04
1.194897448724362221e+03 2.239916596220097001e-04
1.195797898949474757e+03 1.914793188287100024e-04
1.196698349174587293e+03 1.681608882799992956e-04
1.197598799399699828e+03 1.521505264848851870e-04
1.198499249624812364e+03 1.414258597120874716e-04
1.199399699849924900e+03 1.335933772736415468e-04
1.200300150075037436e+03 1.266416321613482074e-04
1.201200600300149972e+03 1.202985150745130628e-04
1.202101050525262508e+03 1.154901197866951373e-04
1.203001500750375044e+03 1.127968956468934110e-04
1.203901950975487580e+03 1.122900167466859715e-04
1.204802401200600343e+03 1.140939677539222800e-04
1.205702851425712879e+03 1.185364801399888755e-04
1.206603301650825415e+03 1.257400629654012295e-04
1.207503751875937951e+03 1.350163837643461844e-04
1.208404202101050487e+03 1.444302035742201960e-04
1.209304652326163023e+03 1.507750901369349903e-04
1.210205102551275559e+03 1.504992002620106795e-04
1.211105552776388095e+03 1.431917463617438980e-04
1.212006003001500630e+03 1.325758621576061686e-04
1.212906453226613166e+03 1.223962786913572215e-04
1.213806903451725702e+03 1.142241328482854283e-04
1.214707353676838466e+03 1.081070500657364147e-04
1.215607803901951002e+03 1.036543407033701326e-04
1.216508254127063537e+03 1.005427914619310960e-04
1.217408704352176073e+03 9.853730439607702452e-05
1.218309154577288609e+03 9.742046520533181582e-05
1.219209604802401145e+03 9.697424531800802403e-05
1.220110055027513681e+03 9.692571772631347875e-05
1.221010505252626217e+03 9.691443440310733130e-05
1.221910955477738753e+03 9.675078554302499016e-05
1.222811405702851289e+03 9.662500891502024249e-05
1.223711855927963825e+03 9.682701326960915257e-05
1.224612306153076588e+03 9.745375327183888349e-05
1.225512756378189124e+03 9.843069664704005405e-05
1.226413206603301660e+03 9.970508691884739927e-05
1.227313656828414196e+03 1.013461586231628378e-04
1.228214107053526732e+03 1.034302158127529942e-04
1.229114557278639268e+03 1.058496145510563475e-04
1.230015007503751804e+03 1.082219146923867536e-04
1.230915457728864340e+03 1.102243357346877658e-04
1.231815907953976875e+03 1.119077807642131943e-04
1.232716358179089411e+03 1.133227528600727965e-04
1.233616808404201947e+03 1.141501538052180968e-04
1.234517258629314711e+03 1.142404121770477322e-04
1.235417708854427246e+03 1.141045723767770823e-04
1.236318159079539782e+03 1.142291136484223179e-04
1.237218609304652318e+03 1.147270745241130781e-04
1.238119059529764854e+03 1.155803439442602674e-04
1.239019509754877390e+03 1.167509417430964746e-04
1.239919959979989926e+03 1.181723325040289960e-04
1.240820410205102462e+03 1.197915789962126067e-04
1.241720860430214998e+03 1.215988637509547363e-04
1.242621310655327534e+03 1.235725177877997939e-04
1.243521760880440070e+03 1.257308767144931893e-04
1.244422211105552606e+03 1.281329590092444794e-04
1.245322661330665369e+03 1.307685217409959935e-04
1.246223111555777905e+03 1.336387522643987737e-04
1.247123561780890441e+03 1.366794927090583236e-04
1.248024012006002977e+03 1.397128603592293419e-04
1.248924462231115513e+03 1.426915902785242675e-04
1.249824912456228049e+03 1.457239805136037415e-04
1.250725362681340584e+03 1.489304241581744027e-04
1.251625812906453120e+03 1.523801406897199123e-04
1.252526263131565656e+03 1.562011225658017639e-04
1.253426713356678192e+03 1.604677409336960640e-04
1.254327163581790728e+03 1.651403983458852838e-04
1.255227613806903491e+03 1.703030225500654245e-04
1.256128064032016027e+03 1.761298827682643785e-04
1.257028514257128563e+03 1.827432786728546170e-04
1.257928964482241099e+03 1.902601954926979417e-04
1.258829414707353635e+03 1.988307739679288282e-04
1.259729864932466171e+03 2.084353292340551179e-04
1.260630315157578707e+03 2.189004351699409975e-04
1.261530765382691243e+03 2.301330274295261395e-04
1.262431215607803779e+03 2.421580938136229345e-04
1.263331665832916315e+03 2.548200986919376006e-04
1.264232116058028851e+03 2.672208043442035803e-04
1.265132566283141614e+03 2.778266595411704363e-04
1.266033016508254150e+03 2.858412653317345597e-04
1.266933466733366686e+03 2.908466090632109307e-04
1.267833916958479222e+03 2.925943840221283034e-04
1.268734367183591758e+03 2.921871357690888015e-04
1.269634817408704293e+03 2.912497321159349768e-04
1.270535267633816829e+03 2.908135184386035797e-04
1.271435717858929365e+03 2.917077438997103768e-04
1.272336168084041901e+03 2.942957594116211257e-04
1.273236618309154437e+03 2.985248560467066012e-04
1.274137068534266973e+03 3.044753082616136783e-04
1.275037518759379736e+03 3.121250801153972374e-04
1.275937968984492272e+03 3.215761860191502911e-04
1.276838419209604808e+03 3.331098066316293279e-04
1.277738869434717344e+03 3.465059585229057315e-04
1.278639319659829880e+03 3.616647734738275065e-04
1.279539769884942416e+03 3.796270225651226789e-04
1.280440220110054952e+03 4.029840971976550923e-04
1.281340670335167488e+03 4.353453403837564050e-04
1.282241120560280024e+03 4.797523845465444660e-04
1.283141570785392560e+03 5.379940589013976204e-04
1.284042021010505096e+03 6.114496388721107250e-04
1.284942471235617859e+03 7.031487511180334500e-04
1.285842921460730395e+03 8.148055545636376761e-04
1.286743371685842931e+03 9.360469858496416702e-04
1.287643821910955467e+03 1.038088935543699312e-03
1.288544272136068003e+03 1.079502763245260592e-03
1.289444722361180538e+03 1.033481367373398352e-03
1.290345172586293074e+03 9.219605272128162526e-04
1.291245622811405610e+03 7.980662618458289267e-04
1.292146073036518146e+03 6.966158521673087613e-04
1.293046523261630682e+03 6.254498515516503012e-04
1.293946973486743218e+03 5.797080560830347685e-04
1.294847423711855754e+03 5.510981936041879940e-04
1.295747873936968517e+03 5.315423181615829907e-04
1.296648324162081053e+03 5.154220570115317524e-04
1.297548774387193589e+03 5.022660127773240311e-04
1.298449224612306125e+03 4.948353715454777623e-04
1.299349674837418661e+03 4.940180752686357648e-04
1.300250125062531197e+03 4.976347018649882742e-04
1.301150575287643733e+03 5.022019703194859725e-04
1.302051025512756269e+03 5.053087518982288945e-04
1.302951475737868805e+03 5.067757096684743752e-04
1.303851925962981340e+03 5.081943635076518291e-04
1.304752376188093876e+03 5.118739394748986291e-04
1.305652826413206640e+03 5.186780599636195291e-04
1.306553276638319176e+03 5.277781370531445639e-04
1.307453726863431712e+03 5.384433471006381568e-04
1.308354177088544247e+03 5.504783938600077290e-04
1.309254627313656783e+03 5.634095347942490997e-04
1.310155077538769319e+03 5.770194706184197898e-04
1.311055527763881855e+03 5.918158311725728099e-04
1.311955977988994391e+03 6.086088546471212597e-04
1.312856428214106927e+03 6.270983833663071024e-04
1.313756878439219463e+03 6.447875200076466076e-04
1.314657328664331999e+03 6.593336609667998583e-04
1.315557778889444762e+03 6.724419204687623764e-04
1.316458229114557298e+03 6.876061573583449986e-04
1.317358679339669834e+03 7.065447240626279192e-04
1.318259129564782370e+03 7.302352567766250049e-04
1.319159579789894906e+03 7.603305209884483797e-04
1.320060030015007442e+03 7.975669540876208522e-04
1.320960480240119978e+03 8.386603542836890525e-04
1.321860930465232514e+03 8.750941451046680619e-04
1.322761380690345050e+03 9.007366193194370598e-04
1.323661830915457585e+03 9.206459150903948362e-04
1.324562281140570121e+03 9.438193103188504069e-04
1.325462731365682885e+03 9.746135689616847739e-04
1.326363181590795421e+03 1.015049175435859272e-03
1.327263631815907956e+03 1.068258383114677234e-03
1.328164082041020492e+03 1.136814445663556503e-03
1.329064532266133028e+03 1.217916593742037618e-03
1.329964982491245564e+03 1.297807420920235729e-03
1.330865432716358100e+03 1.358549185695905612e-03
1.331765882941470636e+03 1.400024857347287278e-03
1.332666333166583172e+03 1.438590548109982322e-03
1.333566783391695708e+03 1.488912022946744769e-03
1.334467233616808244e+03 1.559080454170099113e-03
1.335367683841921007e+03 1.651056157055014097e-03
1.336268134067033543e+03 1.761562001647376183e-03
1.337168584292146079e+03 1.883941096645541484e-03
1.338069034517258615e+03 2.009072156756546747e-03
1.338969484742371151e+03 2.129729611133885162e-03
1.339869934967483687e+03 2.246379127134867475e-03
1.340770385192596223e+03 2.361396154561603948e-03
1.341670835417708759e+03 2.475181365965152189e-03
1.342571285642821294e+03 2.596252389606522239e-03
1.343471735867933830e+03 2.741299571009826221e-03
1.344372186093046366e+03 2.925824723243709759e-03
1.345272636318158902e+03 3.159242642517147166e-03
1.346173086543271666e+03 3.442619599158791652e-03
1.347073536768384201e+03 3.765838619125912515e-03
1.347973986993496737e+03 4.111355708298659005e-03
1.348874437218609273e+03 4.464715135641037641e-03
1.349774887443721809e+03 4.832635227717509835e-03
1.350675337668834345e+03 5.247142271107856429e-03
1.351575787893946881e+03 5.750111074379883787e-03
1.352476238119059417e+03 6.386041464980713941e-03
1.353376688344171953e+03 7.191586875048773704e-03
1.354277138569284489e+03 8.170836500165592001e-03
1.355177588794397025e+03 9.278538835626123221e-03
1.356078039019509788e+03 1.043457949602291657e-02
1.356978489244622324e+03 1.157455455795945200e-02
1.357878939469734860e+03 1.266067296767692599e-02
1.358779389694847396e+03 1.373161323853767067e-02
1.359679839919959932e+03 1.490341476540583444e-02
1.360580290145072468e+03 1.620732530271262045e-02
1.361480740370185003e+03 1.774406594967808948e-02
1.362381190595297539e+03 1.978916029956911612e-02
1.363281640820410075e+03 2.261513357747704442e-02
1.364182091045522611e+03 2.648290599403894247e-02
1.365082541270635147e+03 3.170248894080662794e-02
1.365982991495747910e+03 3.873828095207396127e-02
1.366883441720860446e+03 4.815679600191551807e-02
1.367783891945972982e+03 6.012178193767007267e-02
1.368684342171085518e+03 7.402495232491819455e-02
1.369584792396198054e+03 8.816503338499613596e-02
1.370485242621310590e+03 9.865029910253964029e-02
1.371385692846423126e+03 1.022739364135370616e-01
1.372286143071535662e+03 1.022798783730689554e-01
1.373186593296648198e+03 1.041387602986645761e-01
1.374087043521760734e+03 1.069547630017139289e-01
1.374987493746873270e+03 1.033523359290417637e-01
1.375887943971986033e+03 9.011960874131137722e-02
1.376788394197098569e+03 7.323555737035773727e-02
1.377688844422211105e+03 5.850847025732062306e-02
1.378589294647323641e+03 4.690941074298080743e-02
1.379489744872436177e+03 3.747544218244761721e-02
1.380390195097548713e+03 2.982511107130194489e-02
1.381290645322661248e+03 2.392603583574016979e-02
1.382191095547773784e+03 1.953085038451792335e-02
1.383091545772886320e+03 1.627441419810416942e-02
1.383991995997998856e+03 1.383577986937896236e-02
1.384892446223111392e+03 1.198845071371110009e-02
1.385792896448224155e+03 1.058949764474478514e-02
1.386693346673336691e+03 9.548685075017267904e-03
1.387593796898449227e+03 8.809810281650664113e-03
1.388494247123561763e+03 8.344662318163722017e-03
1.389394697348674299e+03 8.148259991141753450e-03
1.390295147573786835e+03 8.233226821474995405e-03
1.391195597798899371e+03 8.631564266569670407e-03
1.392096048024011907e+03 9.376099685372151979e-03
1.392996498249124443e+03 1.035475828991846113e-02
1.393896948474236979e+03 1.106516826710951008e-02
1.394797398699349515e+03 1.082852926763698195e-02
1.395697848924462278e+03 9.669826421865283447e-03
1.396598299149574814e+03 8.281716136917038201e-03
1.397498749374687350e+03 7.155197966749161052e-03
1.398399199599799886e+03 6.404733999588223953e-03
1.399299649824912422e+03 5.995487748749138944e-03
1.400200100050024957e+03 5.879776100212802219e-03
1.401100550275137493e+03 6.036847051019123521e-03
1.402001000500250029e+03 6.489371039367993095e-03
1.402901450725362565e+03 7.315598892776472954e-03
1.403801900950475101e+03 8.635198733539203517e-03
1.404702351175587637e+03 1.052589096852861797e-02
1.405602801400700173e+03 1.277877940862105592e-02
1.406503251625812936e+03 1.454560604853979630e-02
1.407403701850925472e+03 1.473359724307114586e-02
1.408304152076038008e+03 1.339467514281011441e-02
1.409204602301150544e+03 1.149622267679680475e-02
1.410105052526263080e+03 9.556495460099996217e-03
1.411005502751375616e+03 7.727055029434716851e-03
1.411905952976488152e+03 6.184612265912960843e-03
1.412806403201600688e+03 5.006948578182436604e-03
1.413706853426713224e+03 4.147063553922171464e-03
1.414607303651825760e+03 3.523256677077200080e-03
1.415507753876938295e+03 3.066499328448936326e-03
1.416408204102051059e+03 2.728464919118501683e-03
1.417308654327163595e+03 2.477638611538125150e-03
1.418209104552276131e+03 2.294359207603131022e-03
1.419109554777388666e+03 2.167117206201812658e-03
1.420010005002501202e+03 2.090528869653599485e-03
1.420910455227613738e+03 2.064589196527849037e-03
1.421810905452726274e+03 2.093944053734894065e-03
1.422711355677838810e+03 2.185076062185930222e-03
1.423611805902951346e+03 2.340108009489361152e-03
1.424512256128063882e+03 2.554227839350136330e-03
1.425412706353176418e+03 2.811672516788378019e-03
1.426313156578289181e+03 3.034933090774415837e-03
1.427213606803401717e+03 3.074129636978895942e-03
1.428114057028514253e+03 2.893815123756518590e-03
1.429014507253626789e+03 2.645005458256970317e-03
1.429914957478739325e+03 2.467196339771441510e-03
1.430815407703851861e+03 2.404879165466750068e-03
1.431715857928964397e+03 2.447984684783143655e-03
1.432616308154076933e+03 2.566608778425496541e-03
1.433516758379189469e+03 2.752213724626370941e-03
1.434417208604302004e+03 3.041829483958076105e-03
1.435317658829414540e+03 3.463867357505122542e-03
1.436218109054527304e+03 3.972422278346162718e-03
1.437118559279639840e+03 4.484856999675686587e-03
1.438019009504752376e+03 5.047506430799375554e-03
1.438919459729864911e+03 5.807692190941128076e-03
1.439819909954977447e+03 6.712428769311900092e-03
1.440720360180089983e+03 7.317358756197194641e-03
1.441620810405202519e+03 7.090988816528446745e-03
1.442521260630315055e+03 6.104076455397600652e-03
1.443421710855427591e+03 4.916937887549759079e-03
1.444322161080540127e+03 3.910020658801881266e-03
1.445222611305652663e+03 3.171029673578107475e-03
1.446123061530765426e+03 2.662317024057915798e-03
1.447023511755877962e+03 2.318416291115682135e-03
1.447923961980990498e+03 2.079316407103503142e-03
1.448824412206103034e+03 1.893791192596850064e-03
1.449724862431215570e+03 1.734101546597743024e-03
1.450625312656328106e+03 1.605532454924721384e-03
1.451525762881440642e+03 1.516213249266391795e-03
1.452426213106553178e+03 1.447046468310497595e-03
1.453326663331665713e+03 1.359134098721021065e-03
1.454227113556778249e+03 1.244793965589257971e-03
1.455127563781890785e+03 1.136952518379363841e-03
1.456028014007003321e+03 1.063275517715415270e-03
1.456928464232116085e+03 1.030750890666516867e-03
1.457828914457228620e+03 1.029697069811741014e-03
1.458729364682341156e+03 1.028394057653734183e-03
1.459629814907453692e+03 9.858848514295106853e-04
1.460530265132566228e+03 8.991764333855371046e-04
1.461430715357678764e+03 8.024135077965574916e-04
1.462331165582791300e+03 7.215878121890319458e-04
1.463231615807903836e+03 6.641987163047769534e-04
1.464132066033016372e+03 6.289934948854984664e-04
1.465032516258128908e+03 6.104356549674588416e-04
1.465932966483241444e+03 5.967687833853267849e-04
1.466833416708354207e+03 5.729408842445728265e-04
1.467733866933466743e+03 5.361338864519887967e-04
1.468634317158579279e+03 4.975134213024676221e-04
1.469534767383691815e+03 4.654985007847083057e-04
1.470435217608804351e+03 4.405040094060513325e-04
1.471335667833916887e+03 4.207733824533520196e-04
1.472236118059029423e+03 4.068337558058437455e-04
1.473136568284141958e+03 4.005220525769546697e-04
1.474037018509254494e+03 4.035666698633880167e-04
1.474937468734367030e+03 4.173967384295651072e-04
1.475837918959479566e+03 4.414825813150651890e-04
1.476738369184592329e+03 4.679927365511043699e-04
1.477638819409704865e+03 4.786534202012567105e-04
1.478539269634817401e+03 4.610524172724805012e-04
1.479439719859929937e+03 4.252879145102200428e-04
1.480340170085042473e+03 3.869109455623866026e-04
1.481240620310155009e+03 3.536576512105883349e-04
1.482141070535267545e+03 3.287384450591286796e-04
1.483041520760380081e+03 3.128412676828781509e-04
1.483941970985492617e+03 3.050390957902290520e-04
1.484842421210605153e+03 3.027871034144820014e-04
1.485742871435717689e+03 3.008109658931314699e-04
1.486643321660830452e+03 2.938486700113256459e-04
1.487543771885942988e+03 2.824414400226457904e-04
1.488444222111055524e+03 2.695757901625615003e-04
1.489344672336168060e+03 2.556411929163184731e-04
1.490245122561280596e+03 2.412613295284787699e-04
1.491145572786393132e+03 2.281049856523594238e-04
1.492046023011505667e+03 2.167364649018583363e-04
1.492946473236618203e+03 2.071329287985216629e-04
1.493846923461730739e+03 1.994373088481787566e-04
1.494747373686843275e+03 1.937155336554691914e-04
1.495647823911955811e+03 1.897888372213417667e-04
1.496548274137068574e+03 1.871281883850082507e-04
1.497448724362181110e+03 1.849441376100582598e-04
1.498349174587293646e+03 1.824354799563261177e-04
1.499249624812406182e+03 1.785146927102402214e-04
1.500150075037518718e+03 1.726749647432654659e-04
1.501050525262631254e+03 1.660932648134427097e-04
1.501950975487743790e+03 1.601297307798820672e-04
1.502851425712856326e+03 1.552467815351129903e-04
1.503751875937968862e+03 1.513657718221146685e-04
1.504652326163081398e+03 1.482950418732671444e-04
1.505552776388193934e+03 1.459282109314440534e-04
1.506453226613306470e+03 1.443047806762553500e-04
1.507353676838419233e+03 1.435959064349567394e-04
1.508254127063531769e+03 1.440143204101359035e-04
1.509154577288644305e+03 1.455512040850905455e-04
1.510055027513756841e+03 1.473686445175721683e-04
1.510955477738869376e+03 1.474495771860983044e-04
1.511855927963981912e+03 1.444307732827855670e-04
1.512756378189094448e+03 1.396485229991856821e-04
1.513656828414206984e+03 1.352498412607977237e-04
1.514557278639319520e+03 1.320805002650942111e-04
1.515457728864432056e+03 1.296833612191784682e-04
1.516358179089544592e+03 1.270383363128870435e-04
1.517258629314657355e+03 1.238195153872643887e-04
1.518159079539769891e+03 1.206945059352394160e-04
1.519059529764882427e+03 1.182671795674568625e-04
1.519959979989994963e+03 1.165952302363218874e-04
1.520860430215107499e+03 1.154207016138544876e-04
1.521760880440220035e+03 1.146316651375952098e-04
1.522661330665332571e+03 1.143480045895993138e-04
1.523561780890445107e+03 1.144315922609848461e-04
1.524462231115557643e+03 1.144943657320924977e-04
1.525362681340670179e+03 1.142618181303361650e-04
1.526263131565782714e+03 1.130314670684507382e-04
1.527163581790895478e+03 1.099867428912847301e-04
1.528064032016008014e+03 1.056423724472720007e-04
1.528964482241120550e+03 1.012311792732295421e-04
1.529864932466233086e+03 9.743839485595419197e-05
1.530765382691345621e+03 9.434717138720066538e-05
1.531665832916458157e+03 9.181585263573786631e-05
1.532566283141570693e+03 8.968740033938173237e-05
1.533466733366683229e+03 8.784317002568571586e-05
1.534367183591795765e+03 8.620218041875602453e-05
1.535267633816908301e+03 8.471039529400008184e-05
1.536168084042020837e+03 8.333151708436713765e-05
1.537068534267133600e+03 8.204071645090535089e-05
1.537968984492246136e+03 8.082062407203638693e-05
1.538869434717358672e+03 7.965880083799520435e-05
1.539769884942471208e+03 7.854613009434034644e-05
1.540670335167583744e+03 7.747578042749919517e-05
1.541570785392696280e+03 7.644252425873510862e-05
1.542471235617808816e+03 7.544228158315617930e-05
1.543371685842921352e+03 7.447180865620807531e-05
1.544272136068033888e+03 7.352848169944444304e-05
1.545172586293146423e+03 7.261014402291979502e-05
1.546073036518258959e+03 7.171499621203624255e-05
1.546973486743371723e+03 7.084151604466256303e-05
1.547873936968484259e+03 6.998839925542817868e-05
1.548774387193596795e+03 6.915451513417428557e-05
1.549674837418709330e+03 6.833887282622692525e-05
1.550575287643821866e+03 6.754059545370448537e-05
1.551475737868934402e+03 6.675890002228536445e-05
1.552376188094046938e+03 6.599308165672893500e-05
1.553276638319159474e+03 6.524250111013970795e-05
1.554177088544272010e+03 6.450657477424888897e-05
1.555077538769384546e+03 6.378476661869377613e-05
1.555977988994497082e+03 6.307658163159425048e-05
1.556878439219609618e+03 6.238156043858926545e-05
1.557778889444722381e+03 6.169927485445829169e-05
1.558679339669834917e+03 6.102932417847787959e-05
1.559579789894947453e+03 6.037133208727877973e-05
1.560480240120059989e+03 5.972494401111603526e-05
1.561380690345172525e+03 5.908982490387748788e-05
1.562281140570285061e+03 5.846565733587137317e-05
1.563181590795397597e+03 5.785213985285070967e-05
1.564082041020510133e+03 5.724898555595685039e-05
1.564982491245622668e+03 5.665592086601938269e-05
1.565882941470735204e+03 5.607268444255443247e-05
1.566783391695847740e+03 5.549902623326654076e-05
1.567683841920960504e+03 5.493470663420553545e-05
1.568584292146073039e+03 5.437949574422107373e-05
1.569484742371185575e+03 5.383317270015281440e-05
1.570385192596298111e+03 5.329552508147563159e-05
1.571285642821410647e+03 5.276634837495547972e-05
1.572186093046523183e+03 5.224544549138973462e-05
1.573086543271635719e+03 5.173262632773424998e-05
1.573986993496748255e+03 5.122770736895227470e-05
1.574887443721860791e+03 5.073051132475517127e-05
1.575787893946973327e+03 5.024086679711746748e-05
1.576688344172085863e+03 4.975860797503067843e-05
1.577588794397198626e+03 4.928357435345241455e-05
1.578489244622311162e+03 4.881561047382626794e-05
1.579389694847423698e+03 4.835456568389342286e-05
1.580290145072536234e+03 4.790029391481264598e-05
1.581190595297648770e+03 4.745265347386196255e-05
1.582091045522761306e+03 4.701150685120655489e-05
1.582991495747873842e+03 4.657672053940088632e-05
1.583891945972986377e+03 4.614816486445661955e-05
1.584792396198098913e+03 4.572571382743748769e-05
1.585692846423211449e+03 4.530924495566087410e-05
1.586593296648323985e+03 4.489863916269704909e-05
1.587493746873436749e+03 4.449378061642948376e-05
1.588394197098549284e+03 4.409455661453275999e-05
1.589294647323661820e+03 4.370085746678053405e-05
1.590195097548774356e+03 4.331257638366209318e-05
1.591095547773886892e+03 4.292960937083712401e-05
1.591995997998999428e+03 4.255185512899872536e-05
1.592896448224111964e+03 4.217921495876333123e-05
1.593796898449224500e+03 4.181159267023490037e-05
1.594697348674337036e+03 4.144889449692647367e-05
1.595597798899449572e+03 4.109102901375290409e-05
1.596498249124562108e+03 4.073790705882303061e-05
1.597398699349674871e+03 4.038944165879620763e-05
1.598299149574787407e+03 4.004554795757871231e-05
1.599199599799899943e+03 3.970614314815748742e-05
1.600100050025012479e+03 3.937114640738139623e-05
1.601000500250125015e+03 3.904047883352088777e-05
1.601900950475237551e+03 3.871406338644554272e-05
1.602801400700350086e+03 3.839182483027096441e-05
1.603701850925462622e+03 3.807368967833850681e-05
1.604602301150575158e+03 3.775958614040480322e-05
1.605502751375687694e+03 3.744944407191869574e-05
1.606403201600800230e+03 3.714319492527844651e-05
1.607303651825912766e+03 3.684077170296876574e-05
1.608204102051025529e+03 3.654210891247863509e-05
1.609104552276138065e+03 3.624714252291606325e-05
1.610005002501250601e+03 3.595580992323023904e-05
1.610905452726363137e+03 3.566804988197236386e-05
1.611805902951475673e+03 3.538380250851120570e-05
1.612706353176588209e+03 3.510300921564452271e-05
1.613606803401700745e+03 3.482561268353744186e-05
1.614507253626813281e+03 3.455155682492533581e-05
1.615407703851925817e+03 3.428078675153116883e-05
1.616308154077038353e+03 3.401324874163501761e-05
1.617208604302150889e+03 3.374889020875204644e-05
1.618109054527263652e+03 3.348765967136738987e-05
1.619009504752376188e+03 3.322950672368403925e-05
1.619909954977488724e+03 3.297438200734029065e-05
1.620810405202601260e+03 3.272223718405736369e-05
1.621710855427713796e+03 3.247302490917717752e-05
1.622611305652826331e+03 3.222669880605590780e-05
1.623511755877938867e+03 3.198321344127764786e-05
1.624412206103051403e+03 3.174252430065503791e-05
1.625312656328163939e+03 3.150458776598691817e-05
1.626213106553276475e+03 3.126936109254238388e-05
1.627113556778389011e+03 3.103680238724499768e-05
1.628014007003501774e+03 3.080687058752594129e-05
1.628914457228614310e+03 3.057952544082747834e-05
1.629814907453726846e+03 3.035472748472509350e-05
1.630715357678839382e+03 3.013243802765091655e-05
1.631615807903951918e+03 2.991261913019266469e-05
1.632516258129064454e+03 2.969523358694895680e-05
1.633416708354176990e+03 2.948024490891949841e-05
1.634317158579289526e+03 2.926761730641247184e-05
1.635217608804402062e+03 2.905731567244846723e-05
1.636118059029514598e+03 2.884930556664595171e-05
1.637018509254627133e+03 2.864355319956918139e-05
1.637918959479739897e+03 2.844002541752313327e-05
1.638819409704852433e+03 2.823868968778182317e-05
1.639719859929964969e+03 2.803951408423069076e-05
1.640620310155077505e+03 2.784246727341434396e-05
1.641520760380190040e+03 2.764751850097213270e-05
1.642421210605302576e+03 2.745463757844933769e-05
1.643321660830415112e+03 2.726379487047365065e-05
1.644222111055527648e+03 2.707496128228080150e-05
1.645122561280640184e+03 2.688810824758180413e-05
1.646023011505752720e+03 2.670320771675811569e-05
1.646923461730865256e+03 2.652023214537519222e-05
1.647823911955978019e+03 2.633915448300431004e-05
1.648724362181090555e+03 2.615994816234189219e-05
1.649624812406203091e+03 2.598258708861736485e-05
1.650525262631315627e+03 2.580704562928050748e-05
1.651425712856428163e+03 2.563329860396023973e-05
1.652326163081540699e+03 2.546132127468389138e-05
1.653226613306653235e+03 2.529108933635250319e-05
1.654127063531765771e+03 2.512257890746050012e-05
1.655027513756878307e+03 2.495576652105552893e-05
1.655927963981990843e+03 2.479062911592862776e-05
1.656828414207103378e+03 2.462714402802901185e-05
1.657728864432216142e+03 2.446528898209690252e-05
1.658629314657328678e+03 2.430504208350692179e-05
1.659529764882441214e+03 2.414638181031620464e-05
1.660430215107553749e+03 2.398928700551157422e-05
1.661330665332666285e+03 2.383373686944896641e-05
1.662231115557778821e+03 2.367971095248113628e-05
1.663131565782891357e+03 2.352718914776555890e-05
1.664032016008003893e+03 2.337615168424984124e-05
1.664932466233116429e+03 2.322657911982797032e-05
1.665832916458228965e+03 2.307845233466312884e-05
1.666733366683341501e+03 2.293175252467242613e-05
1.667633816908454037e+03 2.278646119516747982e-05
1.668534267133566800e+03 2.264256015464938791e-05
1.669434717358679336e+03 2.250003150875055599e-05
1.670335167583791872e+03 2.235885765432123158e-05
1.671235617808904408e+03 2.221902127365547367e-05
1.672136068034016944e+03 2.208050532885488370e-05
1.673036518259129480e+03 2.194329305632284729e-05
1.673936968484242016e+03 2.180736796138889053e-05
1.674837418709354552e+03 2.167271381305779058e-05
1.675737868934467087e+03 2.153931463888043540e-05
1.676638319159579623e+03 2.140715471994355612e-05
1.677538769384692159e+03 2.127621858597456781e-05
1.678439219609804923e+03 2.114649101055844215e-05
1.679339669834917459e+03 2.101795700646451486e-05
1.680240120060029994e+03 2.089060182107851834e-05
1.681140570285142530e+03 2.076441093193893828e-05
1.682041020510255066e+03 2.063937004237380123e-05
1.682941470735367602e+03 2.051546507723565365e-05
1.683841920960480138e+03 2.039268217873187622e-05
1.684742371185592674e+03 2.027100770234779571e-05
1.685642821410705210e+03 2.015042821286141861e-05
1.686543271635817746e+03 2.003093048044508401e-05
1.687443721860930282e+03 1.991250147685386617e-05
1.688344172086043045e+03 1.979512837169757240e-05
1.689244622311155581e+03 1.967879852879460850e-05
1.690145072536268117e+03 1.956349950260452664e-05
1.691045522761380653e+03 1.944921903473942532e-05
1.691945972986493189e+03 1.933594505054951894e-05
1.692846423211605725e+03 1.922366565578339186e-05
1.693746873436718261e+03 1.911236913331985056e-05
1.694647323661830796e+03 1.900204393996892074e-05
1.695547773886943332e+03 1.889267870334266369e-05
1.696448224112055868e+03 1.878426221879101425e-05
1.697348674337168404e+03 1.867678344640381951e-05
1.698249124562281168e+03 1.857023150807509375e-05
1.699149574787393703e+03 1.846459568463021137e-05
1.700050025012506239e+03 1.835986541301201598e-05
1.700950475237618775e+03 1.825603028352716371e-05
1.701850925462731311e+03 1.815308003714868245e-05
1.702751375687843847e+03 1.805100456287522123e-05
1.703651825912956383e+03 1.794979389514454708e-05
1.704552276138068919e+03 1.784943821130069284e-05
1.705452726363181455e+03 1.774992782911262841e-05
1.706353176588293991e+03 1.765125320434487535e-05
1.707253626813406527e+03 1.755340492837592130e-05
1.708154077038519290e+03 1.745637372586697860e-05
1.709054527263631826e+03 1.736015045247654717e-05
1.709954977488744362e+03 1.726472609262248901e-05
1.710855427713856898e+03 1.717009175728746414e-05
1.711755877938969434e+03 1.707623868187052298e-05
1.712656328164081970e+03 1.698315822407998993e-05
1.713556778389194506e+03 1.689084186186919328e-05
1.714457228614307041e+03 1.679928119141310675e-05
1.715357678839419577e+03 1.670846792512496425e-05
1.716258129064532113e+03 1.661839388971254292e-05
1.717158579289644649e+03 1.652905102427182056e-05
1.718059029514757185e+03 1.644043137841917317e-05
1.718959479739869948e+03 1.635252711045926636e-05
1.719859929964982484e+03 1.626533048558918964e-05
1.720760380190095020e+03 1.617883387413712940e-05
1.721660830415207556e+03 1.609302974983598355e-05
1.722561280640320092e+03 1.600791068812908220e-05
1.723461730865432628e+03 1.592346936450972868e-05
1.724362181090545164e+03 1.583969855289226703e-05
1.725262631315657700e+03 1.575659112401400192e-05
1.726163081540770236e+03 1.567414004386823173e-05
1.727063531765882772e+03 1.559233837216680583e-05
1.727963981990995308e+03 1.551117926083154196e-05
1.728864432216108071e+03 1.543065595251495094e-05
1.729764882441220607e+03 1.535076177914844253e-05
1.730665332666333143e+03 1.527149016051763974e-05
1.731565782891445679e+03 1.519283460286486255e-05
1.732466233116558215e+03 1.511478869751751900e-05
1.733366683341670750e+03 1.503734611954208850e-05
1.734267133566783286e+03 1.496050062642317904e-05
1.735167583791895822e+03 1.488424605676712464e-05
1.736068034017008358e+03 1.480857632902937254e-05
1.736968484242120894e+03 1.473348544026549249e-05
1.737868934467233430e+03 1.465896746490513548e-05
1.738769384692346193e+03 1.458501655354830340e-05
1.739669834917458729e+03 1.451162693178402944e-05
1.740570285142571265e+03 1.443879289902986332e-05
1.741470735367683801e+03 1.436650882739334384e-05
1.742371185592796337e+03 1.429476916055325128e-05
1.743271635817908873e+03 1.422356841266170028e-05
1.744172086043021409e+03 1.415290116726575675e-05
1.745072536268133945e+03 1.408276207624842814e-05
1.745972986493246481e+03 1.401314585878859344e-05
1.746873436718359017e+03 1.394404730033973547e-05
1.747773886943471553e+03 1.387546125162660841e-05
1.748674337168584316e+03 1.380738262765992836e-05
1.749574787393696852e+03 1.373980640676844342e-05
1.750475237618809388e+03 1.367272762964808157e-05
1.751375687843921924e+03 1.360614139842785972e-05
1.752276138069034459e+03 1.354004287575239962e-05
1.753176588294146995e+03 1.347442728388029178e-05
1.754077038519259531e+03 1.340928990379825147e-05
1.754977488744372067e+03 1.334462607435079407e-05
1.755877938969484603e+03 1.328043119138518241e-05
1.756778389194597139e+03 1.321670070691090414e-05
1.757678839419709675e+03 1.315343012827378577e-05
1.758579289644822438e+03 1.309061501734463507e-05
1.759479739869934974e+03 1.302825098972129200e-05
1.760380190095047510e+03 1.296633371394506394e-05
1.761280640320160046e+03 1.290485891072989011e-05
1.762181090545272582e+03 1.284382235220503316e-05
1.763081540770385118e+03 1.278321986117073368e-05
1.763981990995497654e+03 1.272304731036629249e-05
1.764882441220610190e+03 1.266330062175061940e-05
1.765782891445722726e+03 1.260397576579503869e-05
1.766683341670835262e+03 1.254506876078777678e-05
1.767583791895947797e+03 1.248657567215035075e-05
1.768484242121060333e+03 1.242849261176538668e-05
1.769384692346173097e+03 1.237081573731577305e-05
1.770285142571285633e+03 1.231354125163438507e-05
1.771185592796398169e+03 1.225666540206506777e-05
1.772086043021510704e+03 1.220018447983425103e-05
1.772986493246623240e+03 1.214409481943277313e-05
1.773886943471735776e+03 1.208839279800769920e-05
1.774787393696848312e+03 1.203307483476488517e-05
1.775687843921960848e+03 1.197813739038030682e-05
1.776588294147073384e+03 1.192357696642207668e-05
1.777488744372185920e+03 1.186939010478128701e-05
1.778389194597298456e+03 1.181557338711217525e-05
1.779289644822411219e+03 1.176212343428167116e-05
1.780190095047523755e+03 1.170903690582768711e-05
1.781090545272636291e+03 1.165631049942602260e-05
1.781990995497748827e+03 1.160394095036641171e-05
1.782891445722861363e+03 1.155192503103625825e-05
1.783791895947973899e+03 1.150025955041332566e-05
1.784692346173086435e+03 1.144894135356620273e-05
1.785592796398198971e+03 1.139796732116289747e-05
1.786493246623311506e+03 1.134733436898703047e-05
1.787393696848424042e+03 1.129703944746228014e-05
1.788294147073536578e+03 1.124707954118373973e-05
1.789194597298649342e+03 1.119745166845682134e-05
1.790095047523761878e+03 1.114815288084417973e-05
1.790995497748874413e+03 1.109918026271843656e-05
1.791895947973986949e+03 1.105053093082331908e-05
1.792796398199099485e+03 1.100220203384075850e-05
1.793696848424212021e+03 1.095419075196500864e-05
1.794597298649324557e+03 1.090649429648360346e-05
1.795497748874437093e+03 1.085910990936475884e-05
1.796398199099549629e+03 1.081203486285085267e-05
1.797298649324662165e+03 1.076526645905881338e-05
1.798199099549774701e+03 1.071880202958620549e-05
1.799099549774887464e+03 1.067263893512345293e-05
1.800000000000000000e+03 1.062677456507230824e-05
