0.000000000000000000e+00 8.624203647455318733e-05
9.004502251125562351e-01 7.916852300442860904e-05
1.800900450225112470e+00 6.367861310643039392e-05
2.701350675337668594e+00 4.816438330194843751e-05
3.601800900450224940e+00 3.607084971785652747e-05
4.502251125562780842e+00 2.741696207970420923e-05
5.402701350675337189e+00 2.133349248395313474e-05
6.303151575787893535e+00 1.701696221501624665e-05
7.203601800900449881e+00 1.389528511865726896e-05
8.104052026013006227e+00 1.158862493837510847e-05
9.004502251125561685e+00 9.847968225056403737e-06
9.904952476238118919e+00 8.508640269802800475e-06
1.080540270135067438e+01 7.459880606859061333e-06
1.170585292646323161e+01 6.625711331790259359e-06
1.260630315157578707e+01 5.952961683862525637e-06
1.350675337668834430e+01 5.403698960485666742e-06
1.440720360180089976e+01 4.950368900077455568e-06
1.530765382691345522e+01 4.572619232699945199e-06
1.620810405202601245e+01 4.255184879891216125e-06
1.710855427713856969e+01 3.986454393326821647e-06
1.800900450225112337e+01 3.757481318696895739e-06
1.890945472736368060e+01 3.561291238913383453e-06
1.980990495247623784e+01 3.392388626741137679e-06
2.071035517758879507e+01 3.246400884304658888e-06
2.161080540270134875e+01 3.119817997453889944e-06
2.251125562781390599e+01 3.009799778213330125e-06
2.341170585292646322e+01 2.914031522113771100e-06
2.431215607803901690e+01 2.830614781873416110e-06
2.521260630315157414e+01 2.757983913255820557e-06
2.611305652826413137e+01 2.694841747235925721e-06
2.701350675337668861e+01 2.640109607831687832e-06
2.791395697848924229e+01 2.592888200321763419e-06
2.881440720360179952e+01 2.552426818992089448e-06
2.971485742871435676e+01 2.518098985758282211e-06
3.061530765382691044e+01 2.489383110716214399e-06
3.151575787893946767e+01 2.465847116665836918e-06
3.241620810405202491e+01 2.447136226862377110e-06
3.331665832916458214e+01 2.432963294648809325e-06
3.421710855427713938e+01 2.423101138992710158e-06
3.511755877938969661e+01 2.417376276122083549e-06
3.601800900450224674e+01 2.415663297542028415e-06
3.691845922961480397e+01 2.417880391704691057e-06
3.781890945472736121e+01 2.423990317877767459e-06
3.871935967983991844e+01 2.434005489066810376e-06
3.961980990495247568e+01 2.447985468954235042e-06
4.052026013006503291e+01 2.466032558260137293e-06
4.142071035517759015e+01 2.488294064960487109e-06
4.232116058029014027e+01 2.514967415532462824e-06
4.322161080540269751e+01 2.546305748232824128e-06
4.412206103051525474e+01 2.582624479225762255e-06
4.502251125562781198e+01 2.624309533824762094e-06
4.592296148074036921e+01 2.671827768905563261e-06
4.682341170585292645e+01 2.725740124041851343e-06
4.772386193096548368e+01 2.786718170210398737e-06
4.862431215607803381e+01 2.855564933503830850e-06
4.952476238119059104e+01 2.933241159384583923e-06
5.042521260630314828e+01 3.020898575829165817e-06
5.132566283141570551e+01 3.119922253732259263e-06
5.222611305652826275e+01 3.231984913862863511e-06
5.312656328164081998e+01 3.359117086378461193e-06
5.402701350675337721e+01 3.503798534252465155e-06
5.492746373186592734e+01 3.669078523808450033e-06
5.582791395697848458e+01 3.858735700430736914e-06
5.672836418209104181e+01 4.077493031195013403e-06
5.762881440720359905e+01 4.331310335908384651e-06
5.852926463231615628e+01 4.627787648709368131e-06
5.942971485742871351e+01 4.976729128590774911e-06
6.033016508254127075e+01 5.390943210021089600e-06
6.123061530765382088e+01 5.887397494215027962e-06
6.213106553276637811e+01 6.488916119000456931e-06
6.303151575787893535e+01 7.226719226284657975e-06
6.393196598299149258e+01 8.144300090723617923e-06
6.483241620810404982e+01 9.303371690544723661e-06
6.573286643321659994e+01 1.079286586964392821e-05
6.663331665832916428e+01 1.274194266947624302e-05
6.753376688344171441e+01 1.533583785095961682e-05
6.843421710855427875e+01 1.882535346371654123e-05
6.933466733366682888e+01 2.351172001295904362e-05
7.023511755877939322e+01 2.974876007058962799e-05
7.113556778389194335e+01 3.814384854193028060e-05
7.203601800900449348e+01 4.967643979851529064e-05
7.293646823411705782e+01 6.464233820794676477e-05
7.383691845922960795e+01 7.993660696385073664e-05
7.473736868434217229e+01 8.733223252609781970e-05
7.563781890945472242e+01 8.080178067833399089e-05
7.653826913456728676e+01 6.542828071957684051e-05
7.743871935967983688e+01 4.972805180503776703e-05
7.833916958479238701e+01 3.739948240302517189e-05
7.923961980990495135e+01 2.855781447184975368e-05
8.014007003501750148e+01 2.234238948878004846e-05
8.104052026013006582e+01 1.793679426650759815e-05
8.194097048524261595e+01 1.475587063490056758e-05
8.284142071035518029e+01 1.241037556542550445e-05
8.374187093546773042e+01 1.064508315690104002e-05
8.464232116058028055e+01 9.291296952096933013e-06
8.554277138569284489e+01 8.235646397403830618e-06
8.644322161080539502e+01 7.400444411301160624e-06
8.734367183591795936e+01 6.731392732111162000e-06
8.824412206103050949e+01 6.189815127080824665e-06
8.914457228614307382e+01 5.747674738171705957e-06
9.004502251125562395e+01 5.384320453374664514e-06
9.094547273636817408e+01 5.084323528435576080e-06
9.184592296148073842e+01 4.836013702164883321e-06
9.274637318659328855e+01 4.630471906281799725e-06
9.364682341170585289e+01 4.460824593251685976e-06
9.454727363681840302e+01 4.321734685583717498e-06
9.544772386193096736e+01 4.209012348124978191e-06
9.634817408704351749e+01 4.119316465165730895e-06
9.724862431215606762e+01 4.050021192202572993e-06
9.814907453726863196e+01 3.999246560742802250e-06
9.904952476238118209e+01 3.965747715806590904e-06
9.994997498749374643e+01 3.948668197521788950e-06
1.008504252126062966e+02 3.947465916709830899e-06
1.017508754377188609e+02 3.961966377834710987e-06
1.026513256628314110e+02 3.992387097854446374e-06
1.035517758879439612e+02 4.039340592745179235e-06
1.044522261130565255e+02 4.103878342110013698e-06
1.053526763381690756e+02 4.187574805136958791e-06
1.062531265632816400e+02 4.292648124665885494e-06
1.071535767883941901e+02 4.422127139598542979e-06
1.080540270135067544e+02 4.580070488184283115e-06
1.089544772386193046e+02 4.771845889485878970e-06
1.098549274637318547e+02 5.004571648046534271e-06
1.107553776888444190e+02 5.288110501385007927e-06
1.116558279139569692e+02 5.636890789246709062e-06
1.125562781390695335e+02 6.071962994674099172e-06
1.134567283641820836e+02 6.623729329193683171e-06
1.143571785892946480e+02 7.336941981685174836e-06
1.152576288144071981e+02 8.278565243945678454e-06
1.161580790395197482e+02 9.547659792438358104e-06
1.170585292646323126e+02 1.127985446590924380e-05
1.179589794897448627e+02 1.361253007817600895e-05
1.188594297148574270e+02 1.651002654561984468e-05
1.197598799399699772e+02 1.935092410102265533e-05
1.206603301650825415e+02 2.083625145587056232e-05
1.215607803901950916e+02 2.038487847757106540e-05
1.224612306153076418e+02 1.908499776514508453e-05
1.233616808404202061e+02 1.820891627282285270e-05
1.242621310655327562e+02 1.829111644228876223e-05
1.251625812906453206e+02 1.947216294753937200e-05
1.260630315157578707e+02 2.188100486482244875e-05
1.269634817408704350e+02 2.580135540332845662e-05
1.278639319659829852e+02 3.174403509285807603e-05
1.287643821910955353e+02 4.043680554157249619e-05
1.296648324162080996e+02 5.248377423977722891e-05
1.305652826413206640e+02 6.700163662664082652e-05
1.314657328664331999e+02 7.905529153219090634e-05
1.323661830915457642e+02 8.078609359481228852e-05
1.332666333166583286e+02 7.097119753660077366e-05
1.341670835417708929e+02 5.693717352879249823e-05
1.350675337668834288e+02 4.472992258647301591e-05
1.359679839919959932e+02 3.595038907330231644e-05
1.368684342171085575e+02 3.018330876818855712e-05
1.377688844422210934e+02 2.669541076379369402e-05
1.386693346673336578e+02 2.490132884845413456e-05
1.395697848924462221e+02 2.435341759055903086e-05
1.404702351175587864e+02 2.470715642314492687e-05
1.413706853426713224e+02 2.591496174772308270e-05
1.422711355677838867e+02 2.833530483209426476e-05
1.431715857928964510e+02 3.253536710436535191e-05
1.440720360180089870e+02 3.923231942558194559e-05
1.449724862431215513e+02 4.934600713497123476e-05
1.458729364682341156e+02 6.367588394262495028e-05
1.467733866933466800e+02 8.133372091597943518e-05
1.476738369184592159e+02 9.653206861046228571e-05
1.485742871435717802e+02 9.927602725985172746e-05
1.494747373686843446e+02 8.701494080124950396e-05
1.503751875937968805e+02 6.857371741528452320e-05
1.512756378189094448e+02 5.196019673467847208e-05
1.521760880440220092e+02 3.946604284982639362e-05
1.530765382691345735e+02 3.058716012174026577e-05
1.539769884942471094e+02 2.431250638984862954e-05
1.548774387193596738e+02 1.981443652695921327e-05
1.557778889444722381e+02 1.652183742654927118e-05
1.566783391695847740e+02 1.405803710159251789e-05
1.575787893946973384e+02 1.217544672464268796e-05
1.584792396198099027e+02 1.070919434442739728e-05
1.593796898449224670e+02 9.547408539554483027e-06
1.602801400700350030e+02 8.612799925878803018e-06
1.611805902951475673e+02 7.850990071660607738e-06
1.620810405202601316e+02 7.222943574102381513e-06
1.629814907453726676e+02 6.700108211033809164e-06
1.638819409704852319e+02 6.261204500467091337e-06
1.647823911955977962e+02 5.890004677913560886e-06
1.656828414207103606e+02 5.573600422331331690e-06
1.665832916458228965e+02 5.301454726698780442e-06
1.674837418709354608e+02 5.065533504011600562e-06
1.683841920960480252e+02 4.860509756849814299e-06
1.692846423211605611e+02 4.682683227158014320e-06
1.701850925462731254e+02 4.528751071895785429e-06
1.710855427713856898e+02 4.395649993216262207e-06
1.719859929964982541e+02 4.280735921515603899e-06
1.728864432216107900e+02 4.181812303785483912e-06
1.737868934467233544e+02 4.097094417131731931e-06
1.746873436718359187e+02 4.025200681990319000e-06
1.755877938969484546e+02 3.965098400761563586e-06
1.764882441220610190e+02 3.916023933506177323e-06
1.773886943471735833e+02 3.877428274084256271e-06
1.782891445722861476e+02 3.848830386781156871e-06
1.791895947973986836e+02 3.829411387384497092e-06
1.800900450225112479e+02 3.817526374586530123e-06
1.809904952476238122e+02 3.811207727000216635e-06
1.818909454727363482e+02 3.810000125231269085e-06
1.827913956978489125e+02 3.815557798227240260e-06
1.836918459229614768e+02 3.829667335643891293e-06
1.845922961480740412e+02 3.852945833800433978e-06
1.854927463731865771e+02 3.885216449063401622e-06
1.863931965982991414e+02 3.926469524934392115e-06
1.872936468234117058e+02 3.977495883554092561e-06
1.881940970485242417e+02 4.039344902108616787e-06
1.890945472736368060e+02 4.112695819591381253e-06
1.899949974987493704e+02 4.198050574637070578e-06
1.908954477238619347e+02 4.296436339035832734e-06
1.917958979489744706e+02 4.409771666445295420e-06
1.926963481740870350e+02 4.540255702883501103e-06
1.935967983991995993e+02 4.690269287060217146e-06
1.944972486243121352e+02 4.863244599808778376e-06
1.953976988494246996e+02 5.063919463808674110e-06
1.962981490745372639e+02 5.297738063165086527e-06
1.971985992996498283e+02 5.570918633555815009e-06
1.980990495247623642e+02 5.891840907192437750e-06
1.989994997498749285e+02 6.272432150156852101e-06
1.998999499749874929e+02 6.728545848519652505e-06
2.008004002001000288e+02 7.280709529114011234e-06
2.017008504252125931e+02 7.955744749984763393e-06
2.026013006503251574e+02 8.790677571165965540e-06
2.035017508754377218e+02 9.842105978891107089e-06
2.044022011005502577e+02 1.119888200893162825e-05
2.053026513256628220e+02 1.299184794150422263e-05
2.062031015507753864e+02 1.539796417286856437e-05
2.071035517758879223e+02 1.860903157647409898e-05
2.080040020010004866e+02 2.265812979466962299e-05
2.089044522261130510e+02 2.699370644015285648e-05
2.098049024512256153e+02 3.036510832636137131e-05
2.107053526763381512e+02 3.229726519528173585e-05
2.116058029014507156e+02 3.423814692377224089e-05
2.125062531265632799e+02 3.807191213997341086e-05
2.134067033516758158e+02 4.511711957249985261e-05
2.143071535767883802e+02 5.640480415698302511e-05
2.152076038019009445e+02 7.245174383052179552e-05
2.161080540270135089e+02 9.121697619420313877e-05
2.170085042521260448e+02 1.048330917891436998e-04
2.179089544772386091e+02 1.032882604280736826e-04
2.188094047023511735e+02 8.756768022877170379e-05
2.197098549274637094e+02 6.805367447294789090e-05
2.206103051525762737e+02 5.160639194020324072e-05
2.215107553776888381e+02 3.955046730351403282e-05
2.224112056028014024e+02 3.107212209195126456e-05
2.233116558279139383e+02 2.511988572057698160e-05
2.242121060530265027e+02 2.088765095430932426e-05
2.251125562781390670e+02 1.783004916822087996e-05
2.260130065032516029e+02 1.559030607625839170e-05
2.269134567283641672e+02 1.393481178640932291e-05
2.278139069534767316e+02 1.270967393192914266e-05
2.287143571785892959e+02 1.181381565377812449e-05
2.296148074037018318e+02 1.118170266693323989e-05
2.305152576288143962e+02 1.077315920596325748e-05
2.314157078539269605e+02 1.056671402313670321e-05
2.323161580790394964e+02 1.055582389557325896e-05
2.332166083041520608e+02 1.074885163337550062e-05
2.341170585292646251e+02 1.117252263132554674e-05
2.350175087543771895e+02 1.187890653895354956e-05
2.359179589794897254e+02 1.295570775223338178e-05
2.368184092046022897e+02 1.454200367880459306e-05
2.377188594297148541e+02 1.685010365341082903e-05
2.386193096548273900e+02 2.017756285461512621e-05
2.395197598799399543e+02 2.483604891986109284e-05
2.404202101050525187e+02 3.077245209839865798e-05
2.413206603301650830e+02 3.661968824677982190e-05
2.422211105552776189e+02 3.930765134644801783e-05
2.431215607803901833e+02 3.711871661682883124e-05
2.440220110055027476e+02 3.232682788194123915e-05
2.449224612306152835e+02 2.792541505177753472e-05
2.458229114557278479e+02 2.512617508690403035e-05
2.467233616808404122e+02 2.403407403191579119e-05
2.476238119059529765e+02 2.454484581021898679e-05
2.485242621310655124e+02 2.669247098004143685e-05
2.494247123561780768e+02 3.074825442271022618e-05
2.503251625812906411e+02 3.723673152938401163e-05
2.512256128064031770e+02 4.678848428320540214e-05
2.521260630315157414e+02 5.939849988662173697e-05
2.530265132566283057e+02 7.244516429630789710e-05
2.539269634817408701e+02 7.917150221636963796e-05
2.548274137068534060e+02 7.422239314215390432e-05
2.557278639319659703e+02 6.134681033863894175e-05
2.566283141570785347e+02 4.781433383470576256e-05
2.575287643821910706e+02 3.708483972546391342e-05
2.584292146073036633e+02 2.941328164854840768e-05
2.593296648324161993e+02 2.409824149579496859e-05
2.602301150575287352e+02 2.043712397118275349e-05
2.611305652826413279e+02 1.791998268356127572e-05
2.620310155077538639e+02 1.621353338703363986e-05
2.629314657328663998e+02 1.511115498077901367e-05
2.638319159579789925e+02 1.449126243891495564e-05
2.647323661830915285e+02 1.429437932490332491e-05
2.656328164082040644e+02 1.450655191010495881e-05
2.665332666333166571e+02 1.515027639330000705e-05
2.674337168584291931e+02 1.629699298695327773e-05
2.683341670835417858e+02 1.810064784307832935e-05
2.692346173086543217e+02 2.081986374524597626e-05
2.701350675337668577e+02 2.482202566704262242e-05
2.710355177588794504e+02 3.051929162286100863e-05
2.719359679839919863e+02 3.799756972900765294e-05
2.728364182091045222e+02 4.595560039842284906e-05
2.737368684342171150e+02 5.077284472313916246e-05
2.746373186593296509e+02 4.941614327484439729e-05
2.755377688844421868e+02 4.391598140524117437e-05
2.764382191095547796e+02 3.846532612033549438e-05
2.773386693346673155e+02 3.527955353289626900e-05
2.782391195597798514e+02 3.490480983904417590e-05
2.791395697848924442e+02 3.750229233793026548e-05
2.800400200100049801e+02 4.337485457304821209e-05
2.809404702351175729e+02 5.273799267069646313e-05
2.818409204602301088e+02 6.442218710071468302e-05
2.827413706853426447e+02 7.370497570639713105e-05
2.836418209104552375e+02 7.388861565039094546e-05
2.845422711355677734e+02 6.435826731645283706e-05
2.854427213606803093e+02 5.127360779191295141e-05
2.863431715857929021e+02 3.963186197569596694e-05
2.872436218109054380e+02 3.079862912981378212e-05
2.881440720360179739e+02 2.441625451215257908e-05
2.890445222611305667e+02 1.983704731747597364e-05
2.899449724862431026e+02 1.652429703065331137e-05
2.908454227113556385e+02 1.408797716978112883e-05
2.917458729364682313e+02 1.225893932705703295e-05
2.926463231615807672e+02 1.085548512639405510e-05
2.935467733866933600e+02 9.756176540751274070e-06
2.944472236118058959e+02 8.879186763218437084e-06
2.953476738369184318e+02 8.169169484756867470e-06
2.962481240620310246e+02 7.588683390337115689e-06
2.971485742871435605e+02 7.111208336989992999e-06
2.980490245122560964e+02 6.717390245849913205e-06
2.989494747373686891e+02 6.392289303457408413e-06
2.998499249624812251e+02 6.124373857530049187e-06
3.007503751875937610e+02 5.905093891896625434e-06
3.016508254127063537e+02 5.727482285477404514e-06
3.025512756378188897e+02 5.584497384764032505e-06
3.034517258629314256e+02 5.467979240006707727e-06
3.043521760880440183e+02 5.370159995284929702e-06
3.052526263131565543e+02 5.288005937235015922e-06
3.061530765382691470e+02 5.223010987049234586e-06
3.070535267633816829e+02 5.178770648724748189e-06
3.079539769884942189e+02 5.159210522298695509e-06
3.088544272136068116e+02 5.165890439901572236e-06
3.097548774387193475e+02 5.197683101833662339e-06
3.106553276638318835e+02 5.252193992334077945e-06
3.115557778889444762e+02 5.324885155342717239e-06
3.124562281140570121e+02 5.405899330168646899e-06
3.133566783391695481e+02 5.486354835457083819e-06
3.142571285642821408e+02 5.567169340424094986e-06
3.151575787893946767e+02 5.653497134342541964e-06
3.160580290145072127e+02 5.757072889852957650e-06
3.169584792396198054e+02 5.895628136267918566e-06
3.178589294647323413e+02 6.077390631832619027e-06
3.187593796898449341e+02 6.296817864304063660e-06
3.196598299149574700e+02 6.547425258593029918e-06
3.205602801400700059e+02 6.837241588223897100e-06
3.214607303651825987e+02 7.186194008839737647e-06
3.223611805902951346e+02 7.618436642700012929e-06
3.232616308154076705e+02 8.165923580938074184e-06
3.241620810405202633e+02 8.875669237896303688e-06
3.250625312656327992e+02 9.798693615096295908e-06
3.259629814907453351e+02 1.093475583039964028e-05
3.268634317158579279e+02 1.215353535832044137e-05
3.277638819409704638e+02 1.323571446737689603e-05
3.286643321660829997e+02 1.410107009785725814e-05
3.295647823911955925e+02 1.493547025017139697e-05
3.304652326163081284e+02 1.607490858152829416e-05
3.313656828414207212e+02 1.780019591725019550e-05
3.322661330665332571e+02 2.025799004050883654e-05
3.331665832916457930e+02 2.350475109317344289e-05
3.340670335167583858e+02 2.753700765977564320e-05
3.349674837418709217e+02 3.237861424564595855e-05
3.358679339669834576e+02 3.836166300850560106e-05
3.367683841920960504e+02 4.561773180383620508e-05
3.376688344172085863e+02 5.296407201360271222e-05
3.385692846423211222e+02 5.813989150463321149e-05
3.394697348674337150e+02 5.926695255840500910e-05
3.403701850925462509e+02 5.598617715210840788e-05
3.412706353176587868e+02 4.986245792655369608e-05
3.421710855427713796e+02 4.318466871490382977e-05
3.430715357678839155e+02 3.739221442450046419e-05
3.439719859929965082e+02 3.289065252969371585e-05
3.448724362181090441e+02 2.961294284571495779e-05
3.457728864432215801e+02 2.743967781477526071e-05
3.466733366683341728e+02 2.634885720720602439e-05
3.475737868934467087e+02 2.638828423660635386e-05
3.484742371185592447e+02 2.763154567287041797e-05
3.493746873436718374e+02 3.022869367468851038e-05
3.502751375687843733e+02 3.432676797742625739e-05
3.511755877938969093e+02 3.967968078299133149e-05
3.520760380190095020e+02 4.514829708743345928e-05
3.529764882441220379e+02 4.883278173636036685e-05
3.538769384692345739e+02 4.945323454706373957e-05
3.547773886943471666e+02 4.812233576706403894e-05
3.556778389194597025e+02 4.757826809859744445e-05
3.565782891445722953e+02 4.986099292806114283e-05
3.574787393696848312e+02 5.581927273666133492e-05
3.583791895947973671e+02 6.516508572399848723e-05
3.592796398199099599e+02 7.538473966750164096e-05
3.601800900450224958e+02 8.118682863893577988e-05
3.610805402701350317e+02 7.882831035935732554e-05
3.619809904952476245e+02 7.087611241685589790e-05
3.628814407203601604e+02 6.247698635492181436e-05
3.637818909454726963e+02 5.668091299528657702e-05
3.646823411705852891e+02 5.422285283490287393e-05
3.655827913956978250e+02 5.422116019148576948e-05
3.664832416208103609e+02 5.406306179362040565e-05
3.673836918459229537e+02 5.079857731285447413e-05
3.682841420710354896e+02 4.420052117341433145e-05
3.691845922961480824e+02 3.651221947406037071e-05
3.700850425212606183e+02 2.970032494769155414e-05
3.709854927463731542e+02 2.443308793796895368e-05
3.718859429714857470e+02 2.057858548261047471e-05
3.727863931965982829e+02 1.779101222579781375e-05
3.736868434217108188e+02 1.577463600040114957e-05
3.745872936468234116e+02 1.431598392990854137e-05
3.754877438719359475e+02 1.325673073026571333e-05
3.763881940970484834e+02 1.248138677761377134e-05
3.772886443221610762e+02 1.192244318419031510e-05
3.781890945472736121e+02 1.155646608326119120e-05
3.790895447723861480e+02 1.137687481501864922e-05
3.799899949974987408e+02 1.137783494874564381e-05
3.808904452226112767e+02 1.155706013401818355e-05
3.817908954477238694e+02 1.192431683840116053e-05
3.826913456728364054e+02 1.250748780280193830e-05
3.835917958979489413e+02 1.335541643567494007e-05
3.844922461230615340e+02 1.453936561440112777e-05
3.853926963481740700e+02 1.615515181285802747e-05
3.862931465732866059e+02 1.833983856788456665e-05
3.871935967983991986e+02 2.131123495623609047e-05
3.880940470235117346e+02 2.540653879876827339e-05
3.889944972486242705e+02 3.110681388039471609e-05
3.898949474737368632e+02 3.903697003750453560e-05
3.907953976988493991e+02 4.964171759165862170e-05
3.916958479239619351e+02 6.198906306043497198e-05
3.925962981490745278e+02 7.211315410261633411e-05
3.934967483741870637e+02 7.499222288649851304e-05
3.943971985992996565e+02 7.132383107883478741e-05
3.952976488244121924e+02 6.698001531965082041e-05
3.961980990495247283e+02 6.571004874938536687e-05
3.970985492746373211e+02 6.643140857325316657e-05
3.979989994997498570e+02 6.454011282546660930e-05
3.988994497248623929e+02 5.714193136398326505e-05
3.997998999499749857e+02 4.677739781067235262e-05
4.007003501750875216e+02 3.710531705938882585e-05
4.016008004002000575e+02 2.950159034883996688e-05
4.025012506253126503e+02 2.386236788127995653e-05
4.034017008504251862e+02 1.973533327247443009e-05
4.043021510755377221e+02 1.670090641486430080e-05
4.052026013006503149e+02 1.444499063557506569e-05
4.061030515257628508e+02 1.274438195763319608e-05
4.070035017508754436e+02 1.144341599963938759e-05
4.079039519759879795e+02 1.043455401083189376e-05
4.088044022011005154e+02 9.640943543156018782e-06
4.097048524262131082e+02 9.006951047785568314e-06
4.106053026513256441e+02 8.495458792424138869e-06
4.115057528764381800e+02 8.084556168698788512e-06
4.124062031015507728e+02 7.759399444417116167e-06
4.133066533266633087e+02 7.506626830307515702e-06
4.142071035517758446e+02 7.314117600886584608e-06
4.151075537768884374e+02 7.171350433219814942e-06
4.160080040020009733e+02 7.068736511716871686e-06
4.169084542271135092e+02 6.997563781445217819e-06
4.178089044522261020e+02 6.952333744660696631e-06
4.187093546773386379e+02 6.934981758792538860e-06
4.196098049024512306e+02 6.953095289203382492e-06
4.205102551275637666e+02 7.014143612115692545e-06
4.214107053526763025e+02 7.123532147755157297e-06
4.223111555777888952e+02 7.286376765571763035e-06
4.232116058029014312e+02 7.508558000484165403e-06
4.241120560280139671e+02 7.798350201337549234e-06
4.250125062531265598e+02 8.169463983158540627e-06
4.259129564782390958e+02 8.640776640117410937e-06
4.268134067033516317e+02 9.236032833414028169e-06
4.277138569284642244e+02 9.987876455057219984e-06
4.286143071535767604e+02 1.093839545821348068e-05
4.295147573786892963e+02 1.213747024062848392e-05
4.304152076038018890e+02 1.366783311474092458e-05
4.313156578289144250e+02 1.568538709263659012e-05
4.322161080540270177e+02 1.842910098415024040e-05
4.331165582791395536e+02 2.223625358837757660e-05
4.340170085042520896e+02 2.759681217429625242e-05
4.349174587293646823e+02 3.516407248949235886e-05
4.358179089544772182e+02 4.545841039628570508e-05
4.367183591795897541e+02 5.783028376435063358e-05
4.376188094047023469e+02 6.853076191306913120e-05
4.385192596298148828e+02 7.111799385332463340e-05
4.394197098549274187e+02 6.366311068650950850e-05
4.403201600800400115e+02 5.169773074071623819e-05
4.412206103051525474e+02 4.064767685557571649e-05
4.421210605302650833e+02 3.218697841515445778e-05
4.430215107553776761e+02 2.595397036481726365e-05
4.439219609804902120e+02 2.133614285380153888e-05
4.448224112056028048e+02 1.794987703715015978e-05
4.457228614307153407e+02 1.550157024738862561e-05
4.466233116558278766e+02 1.373617483333354586e-05
4.475237618809404694e+02 1.245211904435376311e-05
4.484242121060530053e+02 1.149936556461397986e-05
4.493246623311655412e+02 1.077858258356453438e-05
4.502251125562781340e+02 1.023442182989268727e-05
4.511255627813906699e+02 9.833347576900568969e-06
4.520260130065032058e+02 9.551321438806597693e-06
4.529264632316157986e+02 9.376510265023720522e-06
4.538269134567283345e+02 9.307965191955930163e-06
4.547273636818408704e+02 9.346681964088300669e-06
4.556278139069534632e+02 9.492483353123451058e-06
4.565282641320659991e+02 9.746568988263248250e-06
4.574287143571785919e+02 1.011368497591507051e-05
4.583291645822911278e+02 1.060502845786740949e-05
4.592296148074036637e+02 1.123402199311136195e-05
4.601300650325162565e+02 1.201530396725433060e-05
4.610305152576287924e+02 1.297583438171682579e-05
4.619309654827413283e+02 1.416947576010763479e-05
4.628314157078539210e+02 1.569484312384622732e-05
4.637318659329664570e+02 1.769568719788681372e-05
4.646323161580789929e+02 2.037315664547752349e-05
4.655327663831915856e+02 2.403008192220551219e-05
4.664332166083041216e+02 2.911278889904410822e-05
4.673336668334167143e+02 3.625008118334752030e-05
4.682341170585292502e+02 4.621796588116865412e-05
4.691345672836417862e+02 5.961848877975344451e-05
4.700350175087543789e+02 7.572038650561156009e-05
4.709354677338669148e+02 9.013878569702886445e-05
4.718359179589794508e+02 9.525479428203347562e-05
4.727363681840920435e+02 8.860796056350325061e-05
4.736368184092045794e+02 7.677771796202319417e-05
4.745372686343171154e+02 6.672366075720176598e-05
4.754377188594297081e+02 6.104478277469840657e-05
4.763381690845422440e+02 5.944432972947853207e-05
4.772386193096547800e+02 5.945922384264550406e-05
4.781390695347673727e+02 5.703577047655393451e-05
4.790395197598799086e+02 5.028469321861348863e-05
4.799399699849925014e+02 4.149205042641651651e-05
4.808404202101050373e+02 3.343550580986542171e-05
4.817408704352175732e+02 2.708775774164131744e-05
4.826413206603301660e+02 2.234367885587074744e-05
4.835417708854427019e+02 1.884909362543951919e-05
4.844422211105552378e+02 1.627202253028550474e-05
4.853426713356678306e+02 1.435499634563910877e-05
4.862431215607803665e+02 1.290847781225850316e-05
4.871435717858929024e+02 1.179603374953723122e-05
4.880440220110054952e+02 1.092771770977432636e-05
4.889444722361180311e+02 1.024959054932309437e-05
4.898449224612305670e+02 9.727300244849111205e-06
4.907453726863431598e+02 9.338921967083074687e-06
4.916458229114556957e+02 9.071558009523106512e-06
4.925462731365682885e+02 8.908351941432418115e-06
4.934467233616808244e+02 8.818796680081682758e-06
4.943471735867933603e+02 8.762015717224483504e-06
4.952476238119059531e+02 8.720573136240240516e-06
4.961480740370184890e+02 8.730561584991582808e-06
4.970485242621310249e+02 8.847168524716139606e-06
4.979489744872436177e+02 9.097430060851178024e-06
4.988494247123561536e+02 9.450614431663974019e-06
4.997498749374686895e+02 9.813164953152103977e-06
5.006503251625812823e+02 1.011858881991963657e-05
5.015507753876938182e+02 1.041837294670462720e-05
5.024512256128063541e+02 1.081854696848590889e-05
5.033516758379189469e+02 1.141057175425352151e-05
5.042521260630314828e+02 1.228035886740346991e-05
5.051525762881440755e+02 1.356617829958679221e-05
5.060530265132566115e+02 1.546124232546655717e-05
5.069534767383691474e+02 1.800772585907553869e-05
5.078539269634817401e+02 2.061751042233101483e-05
5.087543771885942760e+02 2.182736365764021482e-05
5.096548274137068120e+02 2.065910073954785789e-05
5.105552776388194047e+02 1.806646433418479650e-05
5.114557278639319406e+02 1.551672794593182694e-05
5.123561780890445334e+02 1.361435063107896443e-05
5.132566283141570693e+02 1.232998552702249658e-05
5.141570785392696052e+02 1.147408746947512126e-05
5.150575287643821412e+02 1.091819601181713518e-05
5.159579789894946771e+02 1.058795555036180844e-05
5.168584292146073267e+02 1.039853531009735714e-05
5.177588794397198626e+02 1.026420283656292670e-05
5.186593296648323985e+02 1.014642083815131180e-05
5.195597798899449344e+02 1.004373487598407913e-05
5.204602301150574704e+02 9.946250669255934023e-06
5.213606803401700063e+02 9.860514441444249352e-06
5.222611305652826559e+02 9.823590787442984670e-06
5.231615807903951918e+02 9.874355035149133181e-06
5.240620310155077277e+02 1.002361768034401885e-05
5.249624812406202636e+02 1.025814853176394924e-05
5.258629314657327996e+02 1.058368504504479942e-05
5.267633816908454492e+02 1.102331473005726181e-05
5.276638319159579851e+02 1.159134922452241618e-05
5.285642821410705210e+02 1.228548084909530966e-05
5.294647323661830569e+02 1.311975621837691732e-05
5.303651825912955928e+02 1.414688858755042003e-05
5.312656328164081287e+02 1.539169935782948968e-05
5.321660830415207784e+02 1.674538108981009566e-05
5.330665332666333143e+02 1.785810641633260161e-05
5.339669834917458502e+02 1.829622560653963725e-05
5.348674337168583861e+02 1.808402737377212482e-05
5.357678839419709220e+02 1.763499190955780414e-05
5.366683341670835716e+02 1.723928471573674077e-05
5.375687843921961075e+02 1.699840896051399490e-05
5.384692346173086435e+02 1.695493459145132868e-05
5.393696848424211794e+02 1.716887044944582469e-05
5.402701350675337153e+02 1.764454819799241136e-05
5.411705852926462512e+02 1.831714726336362400e-05
5.420710355177589008e+02 1.917816019812045345e-05
5.429714857428714367e+02 2.030950744945413537e-05
5.438719359679839727e+02 2.177502305308874573e-05
5.447723861930965086e+02 2.356527930599678681e-05
5.456728364182090445e+02 2.563649214902060947e-05
5.465732866433215804e+02 2.798654945651951441e-05
5.474737368684342300e+02 3.067245471200397161e-05
5.483741870935467659e+02 3.376477458202499613e-05
5.492746373186593019e+02 3.729228864397050235e-05
5.501750875437718378e+02 4.139996230367833975e-05
5.510755377688843737e+02 4.636002174133485072e-05
5.519759879939970233e+02 5.210550443600807716e-05
5.528764382191095592e+02 5.785521110715717395e-05
5.537768884442220951e+02 6.268560922571871498e-05
5.546773386693346310e+02 6.683388936712186075e-05
5.555777888944471670e+02 7.167704079805807256e-05
5.564782391195597029e+02 7.863484772484653025e-05
5.573786893446723525e+02 8.875596053722880285e-05
5.582791395697848884e+02 1.024118363983028500e-04
5.591795897948974243e+02 1.184959928804780397e-04
5.600800400200099602e+02 1.347962643156372907e-04
5.609804902451224962e+02 1.506894042949524087e-04
5.618809404702351458e+02 1.678266418115351676e-04
5.627813906953476817e+02 1.864316578499257155e-04
5.636818409204602176e+02 2.029705688114649871e-04
5.645822911455727535e+02 2.141634302355582148e-04
5.654827413706852894e+02 2.219335969825835973e-04
5.663831915957978254e+02 2.316933511909683883e-04
5.672836418209104750e+02 2.468985252192829483e-04
5.681840920460230109e+02 2.651728934513595420e-04
5.690845422711355468e+02 2.797268334104989224e-04
5.699849924962480827e+02 2.838634266258448159e-04
5.708854427213606186e+02 2.742095530601874128e-04
5.717858929464731546e+02 2.540925379792534095e-04
5.726863431715858042e+02 2.329470247999047014e-04
5.735867933966983401e+02 2.178741531053763941e-04
5.744872436218108760e+02 2.105017381548111291e-04
5.753876938469234119e+02 2.089171297435334681e-04
5.762881440720359478e+02 2.089476194734118475e-04
5.771885942971485974e+02 2.058741356424088865e-04
5.780890445222611334e+02 1.951797365735555897e-04
5.789894947473736693e+02 1.746331330479240979e-04
5.798899449724862052e+02 1.486962439915909024e-04
5.807903951975987411e+02 1.244325262987782440e-04
5.816908454227112770e+02 1.052193466052906486e-04
5.825912956478239266e+02 9.097724116739542741e-05
5.834917458729364625e+02 8.074680250056594775e-05
5.843921960980489985e+02 7.392016296367835606e-05
5.852926463231615344e+02 6.993635511031382412e-05
5.861930965482740703e+02 6.802934459037952787e-05
5.870935467733867199e+02 6.775888586876089919e-05
5.879939969984992558e+02 6.874287972995338138e-05
5.888944472236117917e+02 6.981648726334887492e-05
5.897948974487243277e+02 6.967620780112117427e-05
5.906953476738368636e+02 6.808246236046557737e-05
5.915957978989493995e+02 6.530264572277889607e-05
5.924962481240620491e+02 6.135944839382176722e-05
5.933966983491745850e+02 5.614411958645784559e-05
5.942971485742871209e+02 4.980510398622736576e-05
5.951975987993996569e+02 4.318541204418365875e-05
5.960980490245121928e+02 3.732474938664554208e-05
5.969984992496247287e+02 3.273059544900999116e-05
5.978989494747373783e+02 2.939655597184058486e-05
5.987993996998499142e+02 2.709609856196692690e-05
5.996998499249624501e+02 2.553573334803139824e-05
6.006003001500749860e+02 2.436762527889458184e-05
6.015007503751875220e+02 2.339047262555698180e-05
6.024012006003001716e+02 2.271747619972834788e-05
6.033016508254127075e+02 2.252658165909293147e-05
6.042021010505252434e+02 2.283840351873377787e-05
6.051025512756377793e+02 2.353266330362828879e-05
6.060030015007503152e+02 2.445013332976290140e-05
6.069034517258628512e+02 2.559799631091391289e-05
6.078039019509755008e+02 2.716587551664975721e-05
6.087043521760880367e+02 2.906860436777948894e-05
6.096048024012005726e+02 3.050320002118710576e-05
6.105052526263131085e+02 3.031731781913776883e-05
6.114057028514256444e+02 2.828675182894091396e-05
6.123061530765382940e+02 2.538752252627111513e-05
6.132066033016508300e+02 2.259635038570465782e-05
6.141070535267633659e+02 2.025151045168445418e-05
6.150075037518759018e+02 1.832450358089172105e-05
6.159079539769884377e+02 1.677874381865696415e-05
6.168084042021009736e+02 1.564517138845252620e-05
6.177088544272136232e+02 1.496683884807115828e-05
6.186093046523261592e+02 1.472857267843309397e-05
6.195097548774386951e+02 1.482645656758482198e-05
6.204102051025512310e+02 1.506337190319374851e-05
6.213106553276637669e+02 1.520454361954228723e-05
6.222111055527763028e+02 1.508320127152318675e-05
6.231115557778889524e+02 1.464461541507947292e-05
6.240120060030014884e+02 1.402533155333487850e-05
6.249124562281140243e+02 1.350835465225356731e-05
6.258129064532265602e+02 1.330115592745743053e-05
6.267133566783390961e+02 1.349043856982249195e-05
6.276138069034517457e+02 1.408936830964113053e-05
6.285142571285642816e+02 1.497488320056945815e-05
6.294147073536768175e+02 1.578783309498145183e-05
6.303151575787893535e+02 1.605525018425848054e-05
6.312156078039018894e+02 1.561804953485284499e-05
6.321160580290144253e+02 1.474362008919394184e-05
6.330165082541270749e+02 1.374047616442959258e-05
6.339169584792396108e+02 1.281363478859961039e-05
6.348174087043521467e+02 1.211751829984805025e-05
6.357178589294646827e+02 1.173607512803445195e-05
6.366183091545772186e+02 1.165105361554199278e-05
6.375187593796898682e+02 1.175531245191216415e-05
6.384192096048024041e+02 1.191465245843583376e-05
6.393196598299149400e+02 1.202880271364222708e-05
6.402201100550274759e+02 1.204629150775138003e-05
6.411205602801400119e+02 1.195116199376302137e-05
6.420210105052525478e+02 1.180624778448916687e-05
6.429214607303651974e+02 1.171506985630514340e-05
6.438219109554777333e+02 1.170485140761514070e-05
6.447223611805902692e+02 1.174170996649268148e-05
6.456228114057028051e+02 1.184313187858688962e-05
6.465232616308153411e+02 1.211237951460707643e-05
6.474237118559278770e+02 1.262725598453644100e-05
6.483241620810405266e+02 1.332596256866396174e-05
6.492246123061530625e+02 1.404934447694109117e-05
6.501250625312655984e+02 1.464432173264441608e-05
6.510255127563781343e+02 1.496210660834253558e-05
6.519259629814906702e+02 1.500245216444205257e-05
6.528264132066033198e+02 1.500594072924806675e-05
6.537268634317158558e+02 1.519403935691152239e-05
6.546273136568283917e+02 1.555779169577956549e-05
6.555277638819409276e+02 1.593080984697207062e-05
6.564282141070534635e+02 1.622683360607461042e-05
6.573286643321659994e+02 1.649348459046310334e-05
6.582291145572786490e+02 1.667836462118630378e-05
6.591295647823911850e+02 1.662447565110127518e-05
6.600300150075037209e+02 1.633095871715053985e-05
6.609304652326162568e+02 1.591027579776529695e-05
6.618309154577287927e+02 1.547404464005345173e-05
6.627313656828414423e+02 1.508444567922577679e-05
6.636318159079539782e+02 1.476138811998779502e-05
6.645322661330665142e+02 1.444958630868531106e-05
6.654327163581790501e+02 1.405446663027390181e-05
6.663331665832915860e+02 1.362241404481353864e-05
6.672336168084041219e+02 1.334438348149784297e-05
6.681340670335167715e+02 1.332106679452119617e-05
6.690345172586293074e+02 1.346518494840368265e-05
6.699349674837418434e+02 1.369436029389463491e-05
6.708354177088543793e+02 1.402398171610786039e-05
6.717358679339669152e+02 1.437688989910401759e-05
6.726363181590794511e+02 1.455513294205417882e-05
6.735367683841921007e+02 1.445236275951391523e-05
6.744372186093046366e+02 1.413742155878030201e-05
6.753376688344171725e+02 1.380751331885766551e-05
6.762381190595297085e+02 1.370710977976990257e-05
6.771385692846422444e+02 1.391891439479743002e-05
6.780390195097548940e+02 1.423728670596237468e-05
6.789394697348674299e+02 1.435046028498905962e-05
6.798399199599799658e+02 1.416192298560404518e-05
6.807403701850925017e+02 1.375908711312363998e-05
6.816408204102050377e+02 1.320414912233855613e-05
6.825412706353175736e+02 1.253636113210514134e-05
6.834417208604302232e+02 1.185095460669835621e-05
6.843421710855427591e+02 1.122161303488221098e-05
6.852426213106552950e+02 1.068594303385844097e-05
6.861430715357678309e+02 1.029850961091848746e-05
6.870435217608803669e+02 1.011883845070421296e-05
6.879439719859930165e+02 1.016714625231796949e-05
6.888444222111055524e+02 1.043329650745673864e-05
6.897448724362180883e+02 1.090349550327578564e-05
6.906453226613306242e+02 1.154942536291783919e-05
6.915457728864431601e+02 1.232461903747846609e-05
6.924462231115556961e+02 1.305054015954522612e-05
6.933466733366683457e+02 1.333866948194263630e-05
6.942471235617808816e+02 1.302249096607327586e-05
6.951475737868934175e+02 1.236467115810035578e-05
6.960480240120059534e+02 1.161512484048666392e-05
6.969484742371184893e+02 1.084486466165489766e-05
6.978489244622311389e+02 1.011357780091202491e-05
6.987493746873436749e+02 9.506425859444193440e-06
6.996498249124562108e+02 9.049837599687135008e-06
7.005502751375687467e+02 8.722178064519193238e-06
7.014507253626812826e+02 8.497517144620293975e-06
7.023511755877938185e+02 8.334721306095434359e-06
7.032516258129064681e+02 8.177555890886910555e-06
7.041520760380190040e+02 7.982873369457937039e-06
7.050525262631315400e+02 7.744366461820799611e-06
7.059529764882440759e+02 7.499985545378834380e-06
7.068534267133566118e+02 7.281761275185467734e-06
7.077538769384691477e+02 7.080291970660656145e-06
7.086543271635817973e+02 6.876101021563156957e-06
7.095547773886943332e+02 6.671304618327001727e-06
7.104552276138068692e+02 6.482289643699714841e-06
7.113556778389194051e+02 6.324540675776661900e-06
7.122561280640319410e+02 6.205866806681369639e-06
7.131565782891445906e+02 6.122478736930451488e-06
7.140570285142571265e+02 6.058164179090494933e-06
7.149574787393696624e+02 5.995148875937695061e-06
7.158579289644821984e+02 5.928051251501541257e-06
7.167583791895947343e+02 5.867710579815426019e-06
7.176588294147072702e+02 5.830115850664713331e-06
7.185592796398199198e+02 5.823516723857008469e-06
7.194597298649324557e+02 5.846338467855951493e-06
7.203601800900449916e+02 5.890082526320754519e-06
7.212606303151575275e+02 5.941942288793950136e-06
7.221610805402700635e+02 5.990848222435790090e-06
7.230615307653827131e+02 6.021639065628409313e-06
7.239619809904952490e+02 6.018161123758880470e-06
7.248624312156077849e+02 5.989642444605405387e-06
7.257628814407203208e+02 5.959751923117100903e-06
7.266633316658328567e+02 5.932950256299055742e-06
7.275637818909453927e+02 5.897364069052336960e-06
7.284642321160580423e+02 5.845848048401831390e-06
7.293646823411705782e+02 5.782778002565149239e-06
7.302651325662831141e+02 5.725491788627782631e-06
7.311655827913956500e+02 5.687531374615786027e-06
7.320660330165081859e+02 5.667552919328030190e-06
7.329664832416207219e+02 5.660096308332552733e-06
7.338669334667333715e+02 5.663665627721921540e-06
7.347673836918459074e+02 5.678030982524710274e-06
7.356678339169584433e+02 5.704024769944226061e-06
7.365682841420709792e+02 5.743697487671018281e-06
7.374687343671835151e+02 5.797434908138614999e-06
7.383691845922961647e+02 5.866530980507170941e-06
7.392696348174087007e+02 5.955555294053913676e-06
7.401700850425212366e+02 6.066868030265985878e-06
7.410705352676337725e+02 6.187180331162131995e-06
7.419709854927463084e+02 6.286485998288373321e-06
7.428714357178588443e+02 6.345998725672411416e-06
7.437718859429714939e+02 6.371577640330422793e-06
7.446723361680840299e+02 6.384663065633923056e-06
7.455727863931965658e+02 6.403621791845891083e-06
7.464732366183091017e+02 6.426159538477517323e-06
7.473736868434216376e+02 6.441753292149846341e-06
7.482741370685342872e+02 6.453290257595772724e-06
7.491745872936468231e+02 6.472173545403528733e-06
7.500750375187593590e+02 6.507690080278137649e-06
7.509754877438718950e+02 6.566391603992352953e-06
7.518759379689844309e+02 6.654974326222236945e-06
7.527763881940969668e+02 6.779837035526018112e-06
7.536768384192096164e+02 6.939916390474895575e-06
7.545772886443221523e+02 7.120493906273733491e-06
7.554777388694346882e+02 7.300315996810700541e-06
7.563781890945472242e+02 7.472771288550525549e-06
7.572786393196597601e+02 7.654685308438565942e-06
7.581790895447722960e+02 7.864634278710736970e-06
7.590795397698849456e+02 8.106278021923484870e-06
7.599799899949974815e+02 8.383155526392360355e-06
7.608804402201100174e+02 8.708204283743059107e-06
7.617808904452225534e+02 9.085448850490106221e-06
7.626813406703350893e+02 9.517209184364163583e-06
7.635817908954477389e+02 1.002538632175872850e-05
7.644822411205602748e+02 1.063661285034005384e-05
7.653826913456728107e+02 1.133534287225317667e-05
7.662831415707853466e+02 1.206115639322620643e-05
7.671835917958978825e+02 1.285960885589869192e-05
7.680840420210104185e+02 1.396935781491461950e-05
7.689844922461230681e+02 1.567801259171943686e-05
7.698849424712356040e+02 1.823079592135927319e-05
7.707853926963481399e+02 2.176797434750091920e-05
7.716858429214606758e+02 2.602423004868530847e-05
7.725862931465732117e+02 2.977882001874051750e-05
7.734867433716858613e+02 3.110358053450016166e-05
7.743871935967983973e+02 2.926519553456431101e-05
7.752876438219109332e+02 2.554551684762824715e-05
7.761880940470234691e+02 2.160281629497971822e-05
7.770885442721360050e+02 1.828601958720569849e-05
7.779889944972485409e+02 1.577154315182096640e-05
7.788894447223611905e+02 1.393795049482089901e-05
7.797898949474737265e+02 1.261151294948773739e-05
7.806903451725862624e+02 1.164960601222780233e-05
7.815907953976987983e+02 1.090434209665724014e-05
7.824912456228113342e+02 1.024745122541138710e-05
7.833916958479238701e+02 9.643856502001227433e-06
7.842921460730365197e+02 9.127583816422705251e-06
7.851925962981490557e+02 8.716675928334964940e-06
7.860930465232615916e+02 8.396375450353853388e-06
7.869934967483741275e+02 8.146037246478490844e-06
7.878939469734866634e+02 7.954839187837466142e-06
7.887943971985993130e+02 7.823342274488876875e-06
7.896948474237118489e+02 7.758550537177433249e-06
7.905952976488243849e+02 7.760382689261842922e-06
7.914957478739369208e+02 7.815662413101468094e-06
7.923961980990494567e+02 7.903336194157459189e-06
7.932966483241619926e+02 8.019206442094998653e-06
7.941970985492746422e+02 8.203814610039116378e-06
7.950975487743871781e+02 8.511979388047499247e-06
7.959979989994997140e+02 8.950342198840313077e-06
7.968984492246122500e+02 9.411070057130273349e-06
7.977988994497247859e+02 9.651780625146134344e-06
7.986993496748374355e+02 9.487233374169855228e-06
7.995997998999499714e+02 9.032457250964430080e-06
8.005002501250625073e+02 8.540391084853186490e-06
8.014007003501750432e+02 8.136311838392205358e-06
8.023011505752875792e+02 7.823537799567829856e-06
8.032016008004001151e+02 7.576715590152885036e-06
8.041020510255127647e+02 7.379638011122533019e-06
8.050025012506253006e+02 7.226116641352457035e-06
8.059029514757378365e+02 7.105611898737179505e-06
8.068034017008503724e+02 7.003615741963740097e-06
8.077038519259629084e+02 6.917883527250124952e-06
8.086043021510754443e+02 6.854519746172702001e-06
8.095047523761880939e+02 6.813560802314679706e-06
8.104052026013006298e+02 6.786433278659349671e-06
8.113056528264131657e+02 6.760751204569616263e-06
8.122061030515257016e+02 6.732435894360053470e-06
8.131065532766382375e+02 6.709483007920306981e-06
8.140070035017508872e+02 6.697626107899654009e-06
8.149074537268634231e+02 6.694276296599848402e-06
8.158079039519759590e+02 6.694313035978570777e-06
8.167083541770884949e+02 6.693954913883258870e-06
8.176088044022010308e+02 6.692787856177422588e-06
8.185092546273135667e+02 6.695364135933195162e-06
8.194097048524262163e+02 6.705335918246971988e-06
8.203101550775387523e+02 6.721178900043126924e-06
8.212106053026512882e+02 6.738049181629446391e-06
8.221110555277638241e+02 6.750756890595804585e-06
8.230115057528763600e+02 6.756882582542087720e-06
8.239119559779890096e+02 6.759725100356249187e-06
8.248124062031015455e+02 6.765297239123563565e-06
8.257128564282140815e+02 6.776817417150308575e-06
8.266133066533266174e+02 6.794364700509451324e-06
8.275137568784391533e+02 6.816821852772322702e-06
8.284142071035516892e+02 6.843015813742763231e-06
8.293146573286643388e+02 6.873231759152789722e-06
8.302151075537768747e+02 6.906909537394384543e-06
8.311155577788894107e+02 6.942013681228832470e-06
8.320160080040019466e+02 6.979446303207975786e-06
8.329164582291144825e+02 7.023475371867776242e-06
8.338169084542270184e+02 7.076952411800309362e-06
8.347173586793396680e+02 7.138305148773957246e-06
8.356178089044522039e+02 7.202025544020558495e-06
8.365182591295647399e+02 7.262844304493566032e-06
8.374187093546772758e+02 7.319610753392443620e-06
8.383191595797898117e+02 7.370204802210267058e-06
8.392196098049024613e+02 7.411269340809341508e-06
8.401200600300149972e+02 7.448900816943606084e-06
8.410205102551275331e+02 7.493983420247928396e-06
8.419209604802400690e+02 7.552447673875412287e-06
8.428214107053526050e+02 7.623033825492847702e-06
8.437218609304651409e+02 7.698047603117429916e-06
8.446223111555777905e+02 7.765643006277859171e-06
8.455227613806903264e+02 7.819556218661318281e-06
8.464232116058028623e+02 7.868388502448608901e-06
8.473236618309153982e+02 7.925786747692436610e-06
8.482241120560279342e+02 7.999261459511087678e-06
8.491245622811405838e+02 8.090460998606861050e-06
8.500250125062531197e+02 8.200885064943785012e-06
8.509254627313656556e+02 8.336243830061685893e-06
8.518259129564781915e+02 8.504000239072760913e-06
8.527263631815907274e+02 8.708079111166519727e-06
8.536268134067032634e+02 8.949749355057101498e-06
8.545272636318159130e+02 9.231710937436198491e-06
8.554277138569284489e+02 9.565142319347112409e-06
8.563281640820409848e+02 9.972247709687884090e-06
8.572286143071535207e+02 1.047908075014069897e-05
8.581290645322660566e+02 1.111269978362625813e-05
8.590295147573785925e+02 1.191230620819156659e-05
8.599299649824912422e+02 1.295329157345383005e-05
8.608304152076037781e+02 1.434929346312606782e-05
8.617308654327163140e+02 1.624795098990008103e-05
8.626313156578288499e+02 1.885969945536587362e-05
8.635317658829413858e+02 2.241621578648936490e-05
8.644322161080540354e+02 2.690945217099059101e-05
8.653326663331665713e+02 3.156180157334211706e-05
8.662331165582791073e+02 3.434454111802226581e-05
8.671335667833916432e+02 3.325880677172044647e-05
8.680340170085041791e+02 2.909537032500861937e-05
8.689344672336167150e+02 2.437914673072124345e-05
8.698349174587293646e+02 2.051933271687148073e-05
8.707353676838419005e+02 1.765333762125913112e-05
8.716358179089544365e+02 1.554845959441799471e-05
8.725362681340669724e+02 1.400745622373312846e-05
8.734367183591795083e+02 1.288900865702713653e-05
8.743371685842921579e+02 1.208369282293772522e-05
8.752376188094046938e+02 1.149896337356251410e-05
8.761380690345172297e+02 1.105127440878143521e-05
8.770385192596297657e+02 1.067861415742161333e-05
8.779389694847423016e+02 1.035596520626295103e-05
8.788394197098548375e+02 1.008155679148022006e-05
8.797398699349674871e+02 9.862740668998552066e-06
8.806403201600800230e+02 9.707017956063980528e-06
8.815407703851925589e+02 9.613000894851532572e-06
8.824412206103050949e+02 9.566739887840307275e-06
8.833416708354176308e+02 9.535773551004881999e-06
8.842421210605301667e+02 9.483276356795143394e-06
8.851425712856428163e+02 9.398937407439412507e-06
8.860430215107553522e+02 9.299554878654885093e-06
8.869434717358678881e+02 9.209773159203221037e-06
8.878439219609804240e+02 9.145598139155623109e-06
8.887443721860929600e+02 9.110468675212519968e-06
8.896448224112056096e+02 9.100953324064074937e-06
8.905452726363181455e+02 9.110313131506176862e-06
8.914457228614306814e+02 9.131174556888759010e-06
8.923461730865432173e+02 9.163592549957777207e-06
8.932466233116557532e+02 9.216089778687953942e-06
8.941470735367682892e+02 9.294799919503133077e-06
8.950475237618809388e+02 9.398316087578234551e-06
8.959479739869934747e+02 9.522182955370637236e-06
8.968484242121060106e+02 9.667686445022496828e-06
8.977488744372185465e+02 9.849261654333318374e-06
8.986493246623310824e+02 1.009180072264922064e-05
8.995497748874437320e+02 1.043038058815922060e-05
9.004502251125562680e+02 1.091792471684217562e-05
9.013506753376688039e+02 1.162240104277613805e-05
9.022511255627813398e+02 1.260405363819778041e-05
9.031515757878938757e+02 1.382993243350323302e-05
9.040520260130064116e+02 1.497469205355822249e-05
9.049524762381190612e+02 1.538084937213535431e-05
9.058529264632315972e+02 1.474698013327927379e-05
9.067533766883441331e+02 1.358524599582056576e-05
9.076538269134566690e+02 1.248501759108193336e-05
9.085542771385692049e+02 1.165089169410494088e-05
9.094547273636817408e+02 1.106395298827845912e-05
9.103551775887943904e+02 1.066033629060120234e-05
9.112556278139069263e+02 1.038839070902223165e-05
9.121560780390194623e+02 1.021150104265067012e-05
9.130565282641319982e+02 1.010513210908905655e-05
9.139569784892445341e+02 1.005653327655198785e-05
9.148574287143571837e+02 1.006181209221885403e-05
9.157578789394697196e+02 1.012162715148609836e-05
9.166583291645822555e+02 1.023079389519081358e-05
9.175587793896947915e+02 1.035924200263272468e-05
9.184592296148073274e+02 1.044393516200692570e-05
9.193596798399198633e+02 1.043803332613805348e-05
9.202601300650325129e+02 1.037079033445310055e-05
9.211605802901450488e+02 1.030785355592268167e-05
9.220610305152575847e+02 1.028804440324357770e-05
9.229614807403701207e+02 1.031467936030725717e-05
9.238619309654826566e+02 1.036839621234751044e-05
9.247623811905953062e+02 1.042124218670942714e-05
9.256628314157078421e+02 1.045927900456049401e-05
9.265632816408203780e+02 1.048960569123162022e-05
9.274637318659329139e+02 1.053116867155275976e-05
9.283641820910454499e+02 1.059798672795454412e-05
9.292646323161579858e+02 1.068201369938236444e-05
9.301650825412706354e+02 1.075782842674847064e-05
9.310655327663831713e+02 1.081602407680775345e-05
9.319659829914957072e+02 1.087118971464707637e-05
9.328664332166082431e+02 1.093929037949991330e-05
9.337668834417207790e+02 1.103497042970557040e-05
9.346673336668334287e+02 1.117193093379094667e-05
9.355677838919459646e+02 1.136116958560843124e-05
9.364682341170585005e+02 1.161599238027425416e-05
9.373686843421710364e+02 1.195614986377927445e-05
9.382691345672835723e+02 1.239484947646608476e-05
9.391695847923961082e+02 1.289556321677584259e-05
9.400700350175087578e+02 1.331691602776275162e-05
9.409704852426212938e+02 1.348794643763348139e-05
9.418709354677338297e+02 1.342742308111219433e-05
9.427713856928463656e+02 1.331459463551627387e-05
9.436718359179589015e+02 1.328728844117975789e-05
9.445722861430714374e+02 1.339414979349911660e-05
9.454727363681840870e+02 1.364071848190395793e-05
9.463731865932966230e+02 1.402386830458094761e-05
9.472736368184091589e+02 1.454714139253405876e-05
9.481740870435216948e+02 1.523208901703631707e-05
9.490745372686342307e+02 1.612099822078002354e-05
9.499749874937468803e+02 1.726449295931874699e-05
9.508754377188594162e+02 1.871989084841810643e-05
9.517758879439719522e+02 2.055897297614743056e-05
9.526763381690844881e+02 2.281516052441329878e-05
9.535767883941970240e+02 2.547388985330836371e-05
9.544772386193095599e+02 2.875769066553812711e-05
9.553776888444222095e+02 3.328958032030087321e-05
9.562781390695347454e+02 3.969266789836598653e-05
9.571785892946472813e+02 4.787799080601064423e-05
9.580790395197598173e+02 5.573516889429636290e-05
9.589794897448723532e+02 5.884612646143593304e-05
9.598799399699850028e+02 5.510043550351140452e-05
9.607803901950975387e+02 4.763486621854234789e-05
9.616808404202100746e+02 3.993370109824541652e-05
9.625812906453226105e+02 3.334909766568720552e-05
9.634817408704351465e+02 2.822319661981314057e-05
9.643821910955476824e+02 2.447270136019385553e-05
9.652826413206603320e+02 2.180522486673389839e-05
9.661830915457728679e+02 1.991692067513257800e-05
9.670835417708854038e+02 1.858024979231056610e-05
9.679839919959979397e+02 1.764821222627880847e-05
9.688844422211104757e+02 1.702975849674892217e-05
9.697848924462230116e+02 1.667316076962595245e-05
9.706853426713356612e+02 1.655431932755199143e-05
9.715857928964481971e+02 1.665227692423256088e-05
9.724862431215607330e+02 1.689918338728775562e-05
9.733866933466732689e+02 1.715166706397374917e-05
9.742871435717858049e+02 1.726718675363130652e-05
9.751875937968984545e+02 1.715573219471142426e-05
9.760880440220109904e+02 1.677942386852094347e-05
9.769884942471235263e+02 1.625832045782078406e-05
9.778889444722360622e+02 1.578157777636446523e-05
9.787893946973485981e+02 1.544197447724417438e-05
9.796898449224611340e+02 1.524105467120872593e-05
9.805902951475737837e+02 1.515382200753859053e-05
9.814907453726863196e+02 1.516534733266600893e-05
9.823911955977988555e+02 1.528040363539944974e-05
9.832916458229113914e+02 1.551119564744704262e-05
9.841920960480239273e+02 1.585654343460518592e-05
9.850925462731365769e+02 1.629320326629194252e-05
9.859929964982491128e+02 1.680562751737301410e-05
9.868934467233616488e+02 1.739531397867091512e-05
9.877938969484741847e+02 1.801463805143527534e-05
9.886943471735867206e+02 1.862550398540026983e-05
9.895947973986992565e+02 1.932404393899817826e-05
9.904952476238119061e+02 2.021998004270188684e-05
9.913956978489244420e+02 2.129475339499353655e-05
9.922961480740369780e+02 2.246256957518516240e-05
9.931965982991495139e+02 2.377829768709220930e-05
9.940970485242620498e+02 2.549365782961103324e-05
9.949974987493745857e+02 2.779950734275247456e-05
9.958979489744872353e+02 3.043112911477153802e-05
9.967983991995997712e+02 3.234050292229172832e-05
9.976988494247123072e+02 3.235912493785965887e-05
9.985992996498248431e+02 3.068018838854232597e-05
9.994997498749373790e+02 2.839604770990389920e-05
1.000400200100050029e+03 2.615731335790298065e-05
1.001300650325162565e+03 2.420928418863145062e-05
1.002201100550275100e+03 2.267319186146969591e-05
1.003101550775387636e+03 2.152065285030169907e-05
1.004002001000500172e+03 2.069318106162748640e-05
1.004902451225612708e+03 2.017341011452276068e-05
1.005802901450725358e+03 1.991410276012196121e-05
1.006703351675837894e+03 1.978876855275696922e-05
1.007603801900950430e+03 1.969899489939893559e-05
1.008504252126062966e+03 1.966485958121241912e-05
1.009404702351175501e+03 1.971580405377611211e-05
1.010305152576288151e+03 1.988070726525017337e-05
1.011205602801400687e+03 2.025622123849342749e-05
1.012106053026513223e+03 2.095361996664195888e-05
1.013006503251625759e+03 2.204639205014212547e-05
1.013906953476738295e+03 2.350592504654056385e-05
1.014807403701850831e+03 2.505565870820741488e-05
1.015707853926963480e+03 2.617160535928585575e-05
1.016608304152076016e+03 2.643692375066893332e-05
1.017508754377188552e+03 2.588375175655013705e-05
1.018409204602301088e+03 2.497786091753870000e-05
1.019309654827413624e+03 2.421919513506945581e-05
1.020210105052526160e+03 2.384840046017072012e-05
1.021110555277638809e+03 2.389210087268613068e-05
1.022011005502751345e+03 2.428135231801152323e-05
1.022911455727863881e+03 2.490125555332677171e-05
1.023811905952976417e+03 2.567978708991625273e-05
1.024712356178089067e+03 2.665092885066940454e-05
1.025612806403201603e+03 2.787484857707309878e-05
1.026513256628314139e+03 2.947703811058306484e-05
1.027413706853426675e+03 3.172335092435989802e-05
1.028314157078539210e+03 3.489542437910155936e-05
1.029214607303651746e+03 3.922685441209403405e-05
1.030115057528764282e+03 4.476005421619516422e-05
1.031015507753876818e+03 5.080909343683483545e-05
1.031915957978989354e+03 5.564329159927729933e-05
1.032816408204101890e+03 5.797677412839658044e-05
1.033716858429214653e+03 5.880537490316204628e-05
1.034617308654327189e+03 5.985377745369387554e-05
1.035517758879439725e+03 6.127662708036165046e-05
1.036418209104552261e+03 6.238008951071025447e-05
1.037318659329664797e+03 6.349597725847354074e-05
1.038219109554777333e+03 6.477772751207020601e-05
1.039119559779889869e+03 6.456706072564728251e-05
1.040020010005002405e+03 6.110601774582143499e-05
1.040920460230114941e+03 5.478979006663375206e-05
1.041820910455227477e+03 4.768893704135101477e-05
1.042721360680340013e+03 4.160191094535007359e-05
1.043621810905452776e+03 3.708428767342948347e-05
1.044522261130565312e+03 3.389053250743378045e-05
1.045422711355677848e+03 3.154046373256574767e-05
1.046323161580790384e+03 2.967627630695146552e-05
1.047223611805902920e+03 2.813122625408535790e-05
1.048124062031015455e+03 2.684120706870851637e-05
1.049024512256127991e+03 2.584333119446481086e-05
1.049924962481240527e+03 2.516632308810728586e-05
1.050825412706353063e+03 2.474723185235257569e-05
1.051725862931465599e+03 2.447430405477096782e-05
1.052626313156578135e+03 2.427263248838698608e-05
1.053526763381690898e+03 2.413573229522988892e-05
1.054427213606803434e+03 2.407194040588239129e-05
1.055327663831915970e+03 2.404054980754094615e-05
1.056228114057028506e+03 2.399931568802008577e-05
1.057128564282141042e+03 2.400110628827095271e-05
1.058029014507253578e+03 2.413254380765549758e-05
1.058929464732366114e+03 2.438673011189301866e-05
1.059829914957478650e+03 2.464820278528255580e-05
1.060730365182591186e+03 2.481693823349816763e-05
1.061630815407703722e+03 2.491217903565990513e-05
1.062531265632816257e+03 2.502623411057006890e-05
1.063431715857929021e+03 2.526250918831376285e-05
1.064332166083041557e+03 2.569384538769785685e-05
1.065232616308154093e+03 2.637116999300228521e-05
1.066133066533266629e+03 2.736728734161531209e-05
1.067033516758379164e+03 2.878767006368514804e-05
1.067933966983491700e+03 3.072758152380959445e-05
1.068834417208604236e+03 3.318846193161836458e-05
1.069734867433716772e+03 3.604911904500075184e-05
1.070635317658829308e+03 3.923874738752557899e-05
1.071535767883941844e+03 4.286089104182141517e-05
1.072436218109054380e+03 4.692193549152579035e-05
1.073336668334167143e+03 5.061903212364370856e-05
1.074237118559279679e+03 5.203815848816857170e-05
1.075137568784392215e+03 5.002201554918809319e-05
1.076038019009504751e+03 4.600192081611871006e-05
1.076938469234617287e+03 4.200350554584667164e-05
1.077838919459729823e+03 3.874501487913326742e-05
1.078739369684842359e+03 3.627863506726137962e-05
1.079639819909954895e+03 3.465419949528786726e-05
1.080540270135067431e+03 3.387552192562368151e-05
1.081440720360179967e+03 3.375687499180379098e-05
1.082341170585292502e+03 3.384607128076064599e-05
1.083241620810405038e+03 3.361112396609513436e-05
1.084142071035517802e+03 3.296441117329583520e-05
1.085042521260630338e+03 3.220837277160460728e-05
1.085942971485742873e+03 3.160144001687758696e-05
1.086843421710855409e+03 3.126772014707222141e-05
1.087743871935967945e+03 3.120928231643646945e-05
1.088644322161080481e+03 3.141121024830989289e-05
1.089544772386193017e+03 3.194064095998189038e-05
1.090445222611305553e+03 3.285155105257315475e-05
1.091345672836418089e+03 3.406487185961949813e-05
1.092246123061530625e+03 3.536165375927189953e-05
1.093146573286643161e+03 3.658818552253529814e-05
1.094047023511755924e+03 3.791057944876970902e-05
1.094947473736868460e+03 3.974214280884611524e-05
1.095847923961980996e+03 4.246509798082327122e-05
1.096748374187093532e+03 4.615396201793237356e-05
1.097648824412206068e+03 5.038982405645152948e-05
1.098549274637318604e+03 5.448986628965558302e-05
1.099449724862431140e+03 5.828108080075113345e-05
1.100350175087543676e+03 6.259796982240769495e-05
1.101250625312656211e+03 6.824104187460020867e-05
1.102151075537768747e+03 7.420641050083541870e-05
1.103051525762881283e+03 7.808829396884822140e-05
1.103951975987994047e+03 7.917265489825390634e-05
1.104852426213106583e+03 7.861673881095415444e-05
1.105752876438219118e+03 7.648785374509592839e-05
1.106653326663331654e+03 7.197961308839702246e-05
1.107553776888444190e+03 6.537601514785323291e-05
1.108454227113556726e+03 5.816148969432723728e-05
1.109354677338669262e+03 5.180297707124203262e-05
1.110255127563781798e+03 4.698601928913388243e-05
1.111155577788894334e+03 4.363651151446243316e-05
1.112056028014006870e+03 4.135410795310869605e-05
1.112956478239119406e+03 3.974268651349820310e-05
1.113856928464232169e+03 3.852954914208413061e-05
1.114757378689344705e+03 3.753511452053260938e-05
1.115657828914457241e+03 3.671956185052075100e-05
1.116558279139569777e+03 3.615510285057162149e-05
1.117458729364682313e+03 3.585498107211050617e-05
1.118359179589794849e+03 3.572923539278043212e-05
1.119259629814907385e+03 3.569413722722233662e-05
1.120160080040019920e+03 3.576850287320034317e-05
1.121060530265132456e+03 3.601823048798353009e-05
1.121960980490244992e+03 3.647859416053467516e-05
1.122861430715357528e+03 3.711648478125297745e-05
1.123761880940470292e+03 3.779943495018132867e-05
1.124662331165582827e+03 3.838372190668415894e-05
1.125562781390695363e+03 3.886958586249001475e-05
1.126463231615807899e+03 3.938476143679237615e-05
1.127363681840920435e+03 4.005506771407415687e-05
1.128264132066032971e+03 4.097980756304940640e-05
1.129164582291145507e+03 4.227225833101181258e-05
1.130065032516258043e+03 4.408559783191557280e-05
1.130965482741370579e+03 4.663652128426224174e-05
1.131865932966483115e+03 5.020493066219322754e-05
1.132766383191595651e+03 5.504827824069958328e-05
1.133666833416708187e+03 6.087974952727983241e-05
1.134567283641820950e+03 6.595798210205842905e-05
1.135467733866933486e+03 6.755364150789766066e-05
1.136368184092046022e+03 6.495619365750866878e-05
1.137268634317158558e+03 6.039303448708759292e-05
1.138169084542271094e+03 5.622838578675376373e-05
1.139069534767383630e+03 5.338562917436917110e-05
1.139969984992496165e+03 5.179431439873845403e-05
1.140870435217608701e+03 5.103065348490012861e-05
1.141770885442721237e+03 5.071903568939212909e-05
1.142671335667833773e+03 5.071416132501630278e-05
1.143571785892946309e+03 5.108146593617568363e-05
1.144472236118059072e+03 5.193176473493465333e-05
1.145372686343171608e+03 5.321883791659564391e-05
1.146273136568284144e+03 5.480397658190452659e-05
1.147173586793396680e+03 5.667001970755109315e-05
1.148074037018509216e+03 5.908609287370928238e-05
1.148974487243621752e+03 6.255968160271958671e-05
1.149874937468734288e+03 6.749799658331894164e-05
1.150775387693846824e+03 7.393463790956749553e-05
1.151675837918959360e+03 8.157474575977484519e-05
1.152576288144071896e+03 9.047126952605865236e-05
1.153476738369184432e+03 1.013005050610932311e-04
1.154377188594297195e+03 1.139021822673337076e-04
1.155277638819409731e+03 1.249309518786673439e-04
1.156178089044522267e+03 1.281548094553273444e-04
1.157078539269634803e+03 1.209800037598555831e-04
1.157978989494747339e+03 1.080097871928554446e-04
1.158879439719859874e+03 9.522841805895577039e-05
1.159779889944972410e+03 8.557582341809891636e-05
1.160680340170084946e+03 7.938095313987022790e-05
1.161580790395197482e+03 7.590208261613538810e-05
1.162481240620310018e+03 7.433184415444235560e-05
1.163381690845422554e+03 7.426409321941801695e-05
1.164282141070535317e+03 7.526876825521054508e-05
1.165182591295647853e+03 7.617568735834723682e-05
1.166083041520760389e+03 7.562505602659007353e-05
1.166983491745872925e+03 7.358017099081391212e-05
1.167883941970985461e+03 7.104956964973491141e-05
1.168784392196097997e+03 6.886204807986192917e-05
1.169684842421210533e+03 6.738548979406247855e-05
1.170585292646323069e+03 6.665632825626096572e-05
1.171485742871435605e+03 6.657044937700977341e-05
1.172386193096548141e+03 6.703032134427126104e-05
1.173286643321660677e+03 6.797562872321510430e-05
1.174187093546773440e+03 6.938310579229440883e-05
1.175087543771885976e+03 7.126546037983744555e-05
1.175987993996998512e+03 7.366462311735661372e-05
1.176888444222111048e+03 7.664403579090388460e-05
1.177788894447223583e+03 8.028501128472633527e-05
1.178689344672336119e+03 8.469677464190485149e-05
1.179589794897448655e+03 9.002701080423293944e-05
1.180490245122561191e+03 9.644760645958303934e-05
1.181390695347673727e+03 1.042073426382650645e-04
1.182291145572786263e+03 1.137401220361118799e-04
1.183191595797898799e+03 1.256104400556541732e-04
1.184092046023011562e+03 1.404890054666493935e-04
1.184992496248124098e+03 1.594292805280495690e-04
1.185892946473236634e+03 1.841256379813047378e-04
1.186793396698349170e+03 2.173763004530692984e-04
1.187693846923461706e+03 2.634707908302001775e-04
1.188594297148574242e+03 3.279218258509876459e-04
1.189494747373686778e+03 4.160421323352620914e-04
1.190395197598799314e+03 5.268097930912544980e-04
1.191295647823911850e+03 6.410139432322777215e-04
1.192196098049024386e+03 7.155589686359547933e-04
1.193096548274136921e+03 7.089566789218249617e-04
1.193996998499249457e+03 6.291451594792538127e-04
1.194897448724362221e+03 5.223694722240324051e-04
1.195797898949474757e+03 4.241375162510902116e-04
1.196698349174587293e+03 3.472481881660723297e-04
1.197598799399699828e+03 2.912257115414310180e-04
1.198499249624812364e+03 2.522311710470912633e-04
1.199399699849924900e+03 2.263069813613401030e-04
1.200300150075037436e+03 2.088800733477585503e-04
1.201200600300149972e+03 1.957666783243941001e-04
1.202101050525262508e+03 1.842895346350853318e-04
1.203001500750375044e+03 1.737464364606438444e-04
1.203901950975487580e+03 1.650975460558126631e-04
1.204802401200600343e+03 1.589178347415821002e-04
1.205702851425712879e+03 1.549020895249528826e-04
1.206603301650825415e+03 1.526884433902976753e-04
1.207503751875937951e+03 1.526297057656700730e-04
1.208404202101050487e+03 1.555975587817840487e-04
1.209304652326163023e+03 1.618213175714543033e-04
1.210205102551275559e+03 1.707802799122388018e-04
1.211105552776388095e+03 1.818331325960503560e-04
1.212006003001500630e+03 1.936093319782773833e-04
1.212906453226613166e+03 2.023668434770706801e-04
1.213806903451725702e+03 2.029345620544027132e-04
1.214707353676838466e+03 1.929886629262032199e-04
1.215607803901951002e+03 1.761198797457271936e-04
1.216508254127063537e+03 1.587754645091531440e-04
1.217408704352176073e+03 1.449592224744525217e-04
1.218309154577288609e+03 1.353255146951893510e-04
1.219209604802401145e+03 1.290403807584223478e-04
1.220110055027513681e+03 1.250335588138694798e-04
1.221010505252626217e+03 1.222678079178655161e-04
1.221910955477738753e+03 1.201702385517375369e-04
1.222811405702851289e+03 1.186599363222637176e-04
1.223711855927963825e+03 1.176446799413197197e-04
1.224612306153076588e+03 1.170091191754534725e-04
1.225512756378189124e+03 1.167660316124102669e-04
1.226413206603301660e+03 1.170024007807006348e-04
1.227313656828414196e+03 1.178331724201740668e-04
1.228214107053526732e+03 1.192005665550465809e-04
1.229114557278639268e+03 1.209542798151125217e-04
1.230015007503751804e+03 1.233040887344017951e-04
1.230915457728864340e+03 1.265311524262065972e-04
1.231815907953976875e+03 1.302813667508053927e-04
1.232716358179089411e+03 1.339189949320000283e-04
1.233616808404201947e+03 1.371502084713680436e-04
1.234517258629314711e+03 1.397414030043675644e-04
1.235417708854427246e+03 1.414075215960078097e-04
1.236318159079539782e+03 1.415813669530586495e-04
1.237218609304652318e+03 1.397956220767495000e-04
1.238119059529764854e+03 1.368564564197594416e-04
1.239019509754877390e+03 1.342386162562713391e-04
1.239919959979989926e+03 1.328752186339544103e-04
1.240820410205102462e+03 1.329513145667459372e-04
1.241720860430214998e+03 1.342372189677152119e-04
1.242621310655327534e+03 1.364855186861294121e-04
1.243521760880440070e+03 1.396941649837178982e-04
1.244422211105552606e+03 1.438982583442459222e-04
1.245322661330665369e+03 1.489094159232234274e-04
1.246223111555777905e+03 1.545132442919921014e-04
1.247123561780890441e+03 1.608075027568223734e-04
1.248024012006002977e+03 1.678595217996707394e-04
1.248924462231115513e+03 1.752089704711231070e-04
1.249824912456228049e+03 1.818157673711102518e-04
1.250725362681340584e+03 1.870486803401389775e-04
1.251625812906453120e+03 1.914212969762317963e-04
1.252526263131565656e+03 1.957597267459085092e-04
1.253426713356678192e+03 2.005793750718207885e-04
1.254327163581790728e+03 2.059864603573339484e-04
1.255227613806903491e+03 2.120243204864934920e-04
1.256128064032016027e+03 2.189860131263937236e-04
1.257028514257128563e+03 2.272204464569370765e-04
1.257928964482241099e+03 2.364900871407049512e-04
1.258829414707353635e+03 2.465492851009806253e-04
1.259729864932466171e+03 2.582726639989271137e-04
1.260630315157578707e+03 2.729164442955019196e-04
1.261530765382691243e+03 2.907670903991330471e-04
1.262431215607803779e+03 3.105523090791807240e-04
1.263331665832916315e+03 3.313033439843201091e-04
1.264232116058028851e+03 3.532895772339935802e-04
1.265132566283141614e+03 3.747298096046222443e-04
1.266033016508254150e+03 3.914633608327178606e-04
1.266933466733366686e+03 4.023749287920600198e-04
1.267833916958479222e+03 4.092470190953434233e-04
1.268734367183591758e+03 4.126093694347879163e-04
1.269634817408704293e+03 4.128813880385042486e-04
1.270535267633816829e+03 4.113459128987480501e-04
1.271435717858929365e+03 4.090988554872944946e-04
1.272336168084041901e+03 4.081697271729884920e-04
1.273236618309154437e+03 4.117225408674401901e-04
1.274137068534266973e+03 4.215131959192928751e-04
1.275037518759379736e+03 4.371686753396165177e-04
1.275937968984492272e+03 4.580381133249968690e-04
1.276838419209604808e+03 4.841045047236626703e-04
1.277738869434717344e+03 5.151834310224855020e-04
1.278639319659829880e+03 5.507271889177485112e-04
1.279539769884942416e+03 5.906942794536401394e-04
1.280440220110054952e+03 6.368824569237778585e-04
1.281340670335167488e+03 6.949785371675883637e-04
1.282241120560280024e+03 7.744188955871847326e-04
1.283141570785392560e+03 8.851526191926118413e-04
1.284042021010505096e+03 1.034235902936030951e-03
1.284942471235617859e+03 1.221353724533364403e-03
1.285842921460730395e+03 1.427535970416846014e-03
1.286743371685842931e+03 1.611523121147002274e-03
1.287643821910955467e+03 1.720545842501434042e-03
1.288544272136068003e+03 1.707980215111733115e-03
1.289444722361180538e+03 1.580190359131510534e-03
1.290345172586293074e+03 1.394520465964334830e-03
1.291245622811405610e+03 1.199505077708606926e-03
1.292146073036518146e+03 1.022835466228193355e-03
1.293046523261630682e+03 8.798295670665585815e-04
1.293946973486743218e+03 7.736958088669110842e-04
1.294847423711855754e+03 7.000549547976397989e-04
1.295747873936968517e+03 6.519099790623201444e-04
1.296648324162081053e+03 6.208110034304364661e-04
1.297548774387193589e+03 5.991032328074512954e-04
1.298449224612306125e+03 5.844284912924098668e-04
1.299349674837418661e+03 5.788673391949900743e-04
1.300250125062531197e+03 5.838530993173826145e-04
1.301150575287643733e+03 5.975857434739114283e-04
1.302051025512756269e+03 6.150886562367305008e-04
1.302951475737868805e+03 6.290111957757572175e-04
1.303851925962981340e+03 6.352415250866258033e-04
1.304752376188093876e+03 6.369045458782989291e-04
1.305652826413206640e+03 6.371963079470389923e-04
1.306553276638319176e+03 6.353573897541892317e-04
1.307453726863431712e+03 6.319320610917998930e-04
1.308354177088544247e+03 6.292699790835814709e-04
1.309254627313656783e+03 6.274274503418042753e-04
1.310155077538769319e+03 6.247259089874142215e-04
1.311055527763881855e+03 6.214224067459409116e-04
1.311955977988994391e+03 6.204570528686965481e-04
1.312856428214106927e+03 6.249549999334853443e-04
1.313756878439219463e+03 6.362486764305158322e-04
1.314657328664331999e+03 6.542920852744976441e-04
1.315557778889444762e+03 6.788677176678643626e-04
1.316458229114557298e+03 7.091131927887259949e-04
1.317358679339669834e+03 7.425649998392207761e-04
1.318259129564782370e+03 7.786531885862480991e-04
1.319159579789894906e+03 8.227984827314335130e-04
1.320060030015007442e+03 8.813586740299792378e-04
1.320960480240119978e+03 9.516767350299937256e-04
1.321860930465232514e+03 1.013276910586492731e-03
1.322761380690345050e+03 1.035960595628235368e-03
1.323661830915457585e+03 1.018005946137265968e-03
1.324562281140570121e+03 9.890876347656088214e-04
1.325462731365682885e+03 9.707108212579369354e-04
1.326363181590795421e+03 9.671587032211026317e-04
1.327263631815907956e+03 9.770326409487552991e-04
1.328164082041020492e+03 9.987380489262279691e-04
1.329064532266133028e+03 1.032047434851498038e-03
1.329964982491245564e+03 1.076726102651884244e-03
1.330865432716358100e+03 1.130349421585819534e-03
1.331765882941470636e+03 1.191946762325806581e-03
1.332666333166583172e+03 1.264170287512136285e-03
1.333566783391695708e+03 1.349311346336413498e-03
1.334467233616808244e+03 1.449926280750528764e-03
1.335367683841921007e+03 1.568756423293085189e-03
1.336268134067033543e+03 1.701434404534600629e-03
1.337168584292146079e+03 1.834164087163927008e-03
1.338069034517258615e+03 1.952218414945948834e-03
1.338969484742371151e+03 2.051887526079622208e-03
1.339869934967483687e+03 2.148288618301915243e-03
1.340770385192596223e+03 2.264980330833460658e-03
1.341670835417708759e+03 2.419804177926354431e-03
1.342571285642821294e+03 2.621934112043615081e-03
1.343471735867933830e+03 2.865142405977891271e-03
1.344372186093046366e+03 3.126626167871951120e-03
1.345272636318158902e+03 3.395836588298763170e-03
1.346173086543271666e+03 3.689668507757132895e-03
1.347073536768384201e+03 4.016806357811089287e-03
1.347973986993496737e+03 4.334865911689431660e-03
1.348874437218609273e+03 4.576912496384057810e-03
1.349774887443721809e+03 4.766061871681109494e-03
1.350675337668834345e+03 5.023660258012683372e-03
1.351575787893946881e+03 5.457340768111313897e-03
1.352476238119059417e+03 6.109646213913675662e-03
1.353376688344171953e+03 6.948953914101345733e-03
1.354277138569284489e+03 7.872092987404783609e-03
1.355177588794397025e+03 8.778172481572737301e-03
1.356078039019509788e+03 9.673032265191949808e-03
1.356978489244622324e+03 1.063634838580314844e-02
1.357878939469734860e+03 1.173458322775810733e-02
1.358779389694847396e+03 1.307660469511565289e-02
1.359679839919959932e+03 1.469605291869906932e-02
1.360580290145072468e+03 1.613213711022615238e-02
1.361480740370185003e+03 1.662322249691690346e-02
1.362381190595297539e+03 1.613105500062111605e-02
1.363281640820410075e+03 1.536755136532880553e-02
1.364182091045522611e+03 1.493650079755393101e-02
1.365082541270635147e+03 1.512152137732266331e-02
1.365982991495747910e+03 1.598772602360270384e-02
1.366883441720860446e+03 1.741710627630083455e-02
1.367783891945972982e+03 1.925388622799879823e-02
1.368684342171085518e+03 2.170328340225817498e-02
1.369584792396198054e+03 2.539952336590742960e-02
1.370485242621310590e+03 3.085624939617150064e-02
1.371385692846423126e+03 3.760557175685379228e-02
1.372286143071535662e+03 4.310777782072448827e-02
1.373186593296648198e+03 4.382826058144922293e-02
1.374087043521760734e+03 3.981832637987688800e-02
1.374987493746873270e+03 3.470373701098650177e-02
1.375887943971986033e+03 3.118028736662112332e-02
1.376788394197098569e+03 3.004530882136663070e-02
1.377688844422211105e+03 3.122592791145636232e-02
1.378589294647323641e+03 3.407794222690650049e-02
1.379489744872436177e+03 3.711056539808502835e-02
1.380390195097548713e+03 3.894088836267466797e-02
1.381290645322661248e+03 4.038444241634000370e-02
1.382191095547773784e+03 4.358555480316166075e-02
1.383091545772886320e+03 4.948539620197411892e-02
1.383991995997998856e+03 5.650253856242385547e-02
1.384892446223111392e+03 6.061262199889626279e-02
1.385792896448224155e+03 5.924638663324060389e-02
1.386693346673336691e+03 5.417378888309631879e-02
1.387593796898449227e+03 4.749415677050747991e-02
1.388494247123561763e+03 3.982297236493665543e-02
1.389394697348674299e+03 3.219178683560549453e-02
1.390295147573786835e+03 2.575554628528941084e-02
1.391195597798899371e+03 2.085939038426863623e-02
1.392096048024011907e+03 1.731968075691989531e-02
1.392996498249124443e+03 1.484062915679309515e-02
1.393896948474236979e+03 1.317595789422133443e-02
1.394797398699349515e+03 1.216091265566831593e-02
1.395697848924462278e+03 1.170477539808612195e-02
1.396598299149574814e+03 1.178087765137396728e-02
1.397498749374687350e+03 1.240655579548644548e-02
1.398399199599799886e+03 1.358411510185531662e-02
1.399299649824912422e+03 1.516336203516382812e-02
1.400200100050024957e+03 1.669286840696924956e-02
1.401100550275137493e+03 1.759086753608367706e-02
1.402001000500250029e+03 1.776999836324706650e-02
1.402901450725362565e+03 1.779874163148400384e-02
1.403801900950475101e+03 1.837759796536357279e-02
1.404702351175587637e+03 2.005664374665109412e-02
1.405602801400700173e+03 2.317086532748858715e-02
1.406503251625812936e+03 2.748478201881143085e-02
1.407403701850925472e+03 3.135475947581541079e-02
1.408304152076038008e+03 3.191874971822657864e-02
1.409204602301150544e+03 2.822444796311072979e-02
1.410105052526263080e+03 2.257678190077906308e-02
1.411005502751375616e+03 1.735529710964921549e-02
1.411905952976488152e+03 1.335026006320017174e-02
1.412806403201600688e+03 1.046295064326480638e-02
1.413706853426713224e+03 8.400457303013496302e-03
1.414607303651825760e+03 6.909620413319637194e-03
1.415507753876938295e+03 5.811308877766684262e-03
1.416408204102051059e+03 4.985290284423459471e-03
1.417308654327163595e+03 4.351509537213677989e-03
1.418209104552276131e+03 3.856655209332644167e-03
1.419109554777388666e+03 3.465208203510442876e-03
1.420010005002501202e+03 3.152793242945259918e-03
1.420910455227613738e+03 2.901713120295917100e-03
1.421810905452726274e+03 2.699120298733671645e-03
1.422711355677838810e+03 2.536512427266663337e-03
1.423611805902951346e+03 2.408664509629938107e-03
1.424512256128063882e+03 2.312393297022478054e-03
1.425412706353176418e+03 2.246007154051223986e-03
1.426313156578289181e+03 2.209411415091581867e-03
1.427213606803401717e+03 2.204313814626453379e-03
1.428114057028514253e+03 2.234512469278314688e-03
1.429014507253626789e+03 2.306638252320147159e-03
1.429914957478739325e+03 2.430706547633965445e-03
1.430815407703851861e+03 2.618646627191586074e-03
1.431715857928964397e+03 2.876971735882128973e-03
1.432616308154076933e+03 3.188482267539257103e-03
1.433516758379189469e+03 3.505333942188435577e-03
1.434417208604302004e+03 3.814935457453598206e-03
1.435317658829414540e+03 4.205466114357811133e-03
1.436218109054527304e+03 4.805126600255289759e-03
1.437118559279639840e+03 5.723610389207859153e-03
1.438019009504752376e+03 7.044272714304283117e-03
1.438919459729864911e+03 8.760214051144054812e-03
1.439819909954977447e+03 1.063512619992950346e-02
1.440720360180089983e+03 1.223729753816998021e-02
1.441620810405202519e+03 1.327929549388209493e-02
1.442521260630315055e+03 1.359407730503575835e-02
1.443421710855427591e+03 1.292901359300547073e-02
1.444322161080540127e+03 1.139544610758642419e-02
1.445222611305652663e+03 9.574456502158516444e-03
1.446123061530765426e+03 7.916835768279305297e-03
1.447023511755877962e+03 6.518652539189972832e-03
1.447923961980990498e+03 5.373671248011346706e-03
1.448824412206103034e+03 4.501490491860793766e-03
1.449724862431215570e+03 3.885708402267964903e-03
1.450625312656328106e+03 3.467861261653366542e-03
1.451525762881440642e+03 3.183194524989800631e-03
1.452426213106553178e+03 2.980022803848566843e-03
1.453326663331665713e+03 2.833532717141601029e-03
1.454227113556778249e+03 2.754681301733888019e-03
1.455127563781890785e+03 2.749583627107029821e-03
1.456028014007003321e+03 2.746183849932790078e-03
1.456928464232116085e+03 2.618658099079789782e-03
1.457828914457228620e+03 2.344768700531226890e-03
1.458729364682341156e+03 2.026567312166702162e-03
1.459629814907453692e+03 1.751934492155440013e-03
1.460530265132566228e+03 1.549680576965553353e-03
1.461430715357678764e+03 1.418112238658774185e-03
1.462331165582791300e+03 1.347230041465368074e-03
1.463231615807903836e+03 1.320068127733080602e-03
1.464132066033016372e+03 1.300900536331618673e-03
1.465032516258128908e+03 1.241427385377271136e-03
1.465932966483241444e+03 1.130223585162880903e-03
1.466833416708354207e+03 1.003055716545954825e-03
1.467733866933466743e+03 8.917248655591268570e-04
1.468634317158579279e+03 8.052587105468564811e-04
1.469534767383691815e+03 7.413661182587887510e-04
1.470435217608804351e+03 6.957075294387414901e-04
1.471335667833916887e+03 6.649290225173393144e-04
1.472236118059029423e+03 6.472568895029173113e-04
1.473136568284141958e+03 6.426382980192476896e-04
1.474037018509254494e+03 6.527018834060645518e-04
1.474937468734367030e+03 6.811067965507953828e-04
1.475837918959479566e+03 7.340622873198953671e-04
1.476738369184592329e+03 8.195374959998765439e-04
1.477638819409704865e+03 9.418014001600400094e-04
1.478539269634817401e+03 1.084192702742275711e-03
1.479439719859929937e+03 1.184893722973196948e-03
1.480340170085042473e+03 1.165444430969780334e-03
1.481240620310155009e+03 1.031672625508021001e-03
1.482141070535267545e+03 8.645945521573002385e-04
1.483041520760380081e+03 7.198100615862642812e-04
1.483941970985492617e+03 6.094339573982475314e-04
1.484842421210605153e+03 5.282038865291027166e-04
1.485742871435717689e+03 4.683904072635199523e-04
1.486643321660830452e+03 4.236001906321119805e-04
1.487543771885942988e+03 3.893366041666714451e-04
1.488444222111055524e+03 3.627019960089583562e-04
1.489344672336168060e+03 3.419054915800910730e-04
1.490245122561280596e+03 3.258343783045710438e-04
1.491145572786393132e+03 3.136607306776826947e-04
1.492046023011505667e+03 3.043635282998093214e-04
1.492946473236618203e+03 2.963459919370622702e-04
1.493846923461730739e+03 2.882202654319152729e-04
1.494747373686843275e+03 2.804293352082275030e-04
1.495647823911955811e+03 2.747108424483631355e-04
1.496548274137068574e+03 2.724865167362425060e-04
1.497448724362181110e+03 2.747358486464480010e-04
1.498349174587293646e+03 2.822582043891346524e-04
1.499249624812406182e+03 2.944516439229225685e-04
1.500150075037518718e+03 3.060240753524747035e-04
1.501050525262631254e+03 3.067374432894176117e-04
1.501950975487743790e+03 2.926542497488211726e-04
1.502851425712856326e+03 2.722562817695445086e-04
1.503751875937968862e+03 2.540845736765113671e-04
1.504652326163081398e+03 2.395710748091328744e-04
1.505552776388193934e+03 2.261900508536398766e-04
1.506453226613306470e+03 2.127107141308842166e-04
1.507353676838419233e+03 2.002893481744202637e-04
1.508254127063531769e+03 1.898806516660235435e-04
1.509154577288644305e+03 1.814626462723070916e-04
1.510055027513756841e+03 1.746462333231233355e-04
1.510955477738869376e+03 1.690548817484524894e-04
1.511855927963981912e+03 1.644151428107345960e-04
1.512756378189094448e+03 1.605684669178467105e-04
1.513656828414206984e+03 1.574605435301912597e-04
1.514557278639319520e+03 1.550818595215932780e-04
1.515457728864432056e+03 1.533341345696094223e-04
1.516358179089544592e+03 1.517834656550084830e-04
1.517258629314657355e+03 1.496471043330448473e-04
1.518159079539769891e+03 1.466383620603618494e-04
1.519059529764882427e+03 1.434229664483819991e-04
1.519959979989994963e+03 1.407286962520408696e-04
1.520860430215107499e+03 1.388835714818670828e-04
1.521760880440220035e+03 1.380507345199256984e-04
1.522661330665332571e+03 1.384487565606176208e-04
1.523561780890445107e+03 1.404172259554224711e-04
1.524462231115557643e+03 1.443137622497439544e-04
1.525362681340670179e+03 1.499714752381412300e-04
1.526263131565782714e+03 1.554591849013292365e-04
1.527163581790895478e+03 1.568248828248398311e-04
1.528064032016008014e+03 1.518527291225493195e-04
1.528964482241120550e+03 1.427632015018806533e-04
1.529864932466233086e+03 1.331330580355220947e-04
1.530765382691345621e+03 1.249512295112613857e-04
1.531665832916458157e+03 1.185419817762582614e-04
1.532566283141570693e+03 1.135629024818486058e-04
1.533466733366683229e+03 1.096043813811975270e-04
1.534367183591795765e+03 1.063533176880086340e-04
1.535267633816908301e+03 1.035964495626926982e-04
1.536168084042020837e+03 1.011925457878433762e-04
1.537068534267133600e+03 9.904772735652523166e-05
1.537968984492246136e+03 9.709856745236969085e-05
1.538869434717358672e+03 9.530130472982445086e-05
1.539769884942471208e+03 9.362506494688899801e-05
1.540670335167583744e+03 9.204757842259577176e-05
1.541570785392696280e+03 9.055243594857637470e-05
1.542471235617808816e+03 8.912729932392099820e-05
1.543371685842921352e+03 8.776271247844836816e-05
1.544272136068033888e+03 8.645129684176289719e-05
1.545172586293146423e+03 8.518719694379395138e-05
1.546073036518258959e+03 8.396569188005025442e-05
1.546973486743371723e+03 8.278291861966279453e-05
1.547873936968484259e+03 8.163567197278745902e-05
1.548774387193596795e+03 8.052125792169146127e-05
1.549674837418709330e+03 7.943738464503218000e-05
1.550575287643821866e+03 7.838208053435721443e-05
1.551475737868934402e+03 7.735363179069724906e-05
1.552376188094046938e+03 7.635053439774107799e-05
1.553276638319159474e+03 7.537145677203064761e-05
1.554177088544272010e+03 7.441521042831363388e-05
1.555077538769384546e+03 7.348072672313217340e-05
1.555977988994497082e+03 7.256703825219059788e-05
1.556878439219609618e+03 7.167326384335316082e-05
1.557778889444722381e+03 7.079859635175315806e-05
1.558679339669834917e+03 6.994229265654556540e-05
1.559579789894947453e+03 6.910366540105111820e-05
1.560480240120059989e+03 6.828207612372250005e-05
1.561380690345172525e+03 6.747692950656831534e-05
1.562281140570285061e+03 6.668766852753487849e-05
1.563181590795397597e+03 6.591377034891031676e-05
1.564082041020510133e+03 6.515474280879067991e-05
1.564982491245622668e+03 6.441012140963953212e-05
1.565882941470735204e+03 6.367946671898394703e-05
1.566783391695847740e+03 6.296236211371863348e-05
1.567683841920960504e+03 6.225841181243968480e-05
1.568584292146073039e+03 6.156723915047489725e-05
1.569484742371185575e+03 6.088848506044706684e-05
1.570385192596298111e+03 6.022180672774998957e-05
1.571285642821410647e+03 5.956687639557560943e-05
1.572186093046523183e+03 5.892338029839920170e-05
1.573086543271635719e+03 5.829101770629054356e-05
1.573986993496748255e+03 5.766950006524684022e-05
1.574887443721860791e+03 5.705855022106899854e-05
1.575787893946973327e+03 5.645790171621884894e-05
1.576688344172085863e+03 5.586729815067138018e-05
1.577588794397198626e+03 5.528649259909918493e-05
1.578489244622311162e+03 5.471524707782767362e-05
1.579389694847423698e+03 5.415333205590581734e-05
1.580290145072536234e+03 5.360052600543305294e-05
1.581190595297648770e+03 5.305661498691020074e-05
1.582091045522761306e+03 5.252139226595965124e-05
1.582991495747873842e+03 5.199465795821041374e-05
1.583891945972986377e+03 5.147621869955667384e-05
1.584792396198098913e+03 5.096588733933586309e-05
1.585692846423211449e+03 5.046348265426440274e-05
1.586593296648323985e+03 4.996882908123119254e-05
1.587493746873436749e+03 4.948175646725413534e-05
1.588394197098549284e+03 4.900209983510760451e-05
1.589294647323661820e+03 4.852969916328401287e-05
1.590195097548774356e+03 4.806439917909925935e-05
1.591095547773886892e+03 4.760604916387776005e-05
1.591995997998999428e+03 4.715450276926001110e-05
1.592896448224111964e+03 4.670961784377204387e-05
1.593796898449224500e+03 4.627125626888429864e-05
1.594697348674337036e+03 4.583928380385565981e-05
1.595597798899449572e+03 4.541356993873224307e-05
1.596498249124562108e+03 4.499398775492051400e-05
1.597398699349674871e+03 4.458041379281538457e-05
1.598299149574787407e+03 4.417272792600384008e-05
1.599199599799899943e+03 4.377081324160594992e-05
1.600100050025012479e+03 4.337455592635931068e-05
1.601000500250125015e+03 4.298384515807724912e-05
1.601900950475237551e+03 4.259857300214671541e-05
1.602801400700350086e+03 4.221863431275661819e-05
1.603701850925462622e+03 4.184392663857210002e-05
1.604602301150575158e+03 4.147435013259239669e-05
1.605502751375687694e+03 4.110980746594872107e-05
1.606403201600800230e+03 4.075020374541792463e-05
1.607303651825912766e+03 4.039544643444439333e-05
1.608204102051025529e+03 4.004544527747433690e-05
1.609104552276138065e+03 3.970011222742637690e-05
1.610005002501250601e+03 3.935936137612603862e-05
1.610905452726363137e+03 3.902310888755339513e-05
1.611805902951475673e+03 3.869127293375415578e-05
1.612706353176588209e+03 3.836377363328015758e-05
1.613606803401700745e+03 3.804053299203146609e-05
1.614507253626813281e+03 3.772147484638158245e-05
1.615407703851925817e+03 3.740652480847198312e-05
1.616308154077038353e+03 3.709561021357355554e-05
1.617208604302150889e+03 3.678866006941569129e-05
1.618109054527263652e+03 3.648560500738984964e-05
1.619009504752376188e+03 3.618637723553994729e-05
1.619909954977488724e+03 3.589091049326010896e-05
1.620810405202601260e+03 3.559914000761904660e-05
1.621710855427713796e+03 3.531100245124131891e-05
1.622611305652826331e+03 3.502643590167240977e-05
1.623511755877938867e+03 3.474537980216828558e-05
1.624412206103051403e+03 3.446777492384084233e-05
1.625312656328163939e+03 3.419356332910804768e-05
1.626213106553276475e+03 3.392268833638715473e-05
1.627113556778389011e+03 3.365509448598297081e-05
1.628014007003501774e+03 3.339072750712048139e-05
1.628914457228614310e+03 3.312953428607257235e-05
1.629814907453726846e+03 3.287146283534226086e-05
1.630715357678839382e+03 3.261646226385234658e-05
1.631615807903951918e+03 3.236448274810512567e-05
1.632516258129064454e+03 3.211547550427367836e-05
1.633416708354176990e+03 3.186939276118605805e-05
1.634317158579289526e+03 3.162618773416890036e-05
1.635217608804402062e+03 3.138581459971795314e-05
1.636118059029514598e+03 3.114822847096275070e-05
1.637018509254627133e+03 3.091338537389466809e-05
1.637918959479739897e+03 3.068124222433202264e-05
1.638819409704852433e+03 3.045175680559214325e-05
1.639719859929964969e+03 3.022488774684501986e-05
1.640620310155077505e+03 3.000059450212429120e-05
1.641520760380190040e+03 2.977883732997041390e-05
1.642421210605302576e+03 2.955957727368415264e-05
1.643321660830415112e+03 2.934277614216660688e-05
1.644222111055527648e+03 2.912839649132787433e-05
1.645122561280640184e+03 2.891640160604066174e-05
1.646023011505752720e+03 2.870675548262239667e-05
1.646923461730865256e+03 2.849942281182620281e-05
1.647823911955978019e+03 2.829436896232271400e-05
1.648724362181090555e+03 2.809155996465735827e-05
1.649624812406203091e+03 2.789096249566440277e-05
1.650525262631315627e+03 2.769254386332439325e-05
1.651425712856428163e+03 2.749627199204935545e-05
1.652326163081540699e+03 2.730211540838033544e-05
1.653226613306653235e+03 2.711004322708555949e-05
1.654127063531765771e+03 2.692002513764352628e-05
1.655027513756878307e+03 2.673203139110017952e-05
1.655927963981990843e+03 2.654603278728760417e-05
1.656828414207103378e+03 2.636200066239131423e-05
1.657728864432216142e+03 2.617990687685599436e-05
1.658629314657328678e+03 2.599972380361947704e-05
1.659529764882441214e+03 2.582142431666101638e-05
1.660430215107553749e+03 2.564498177985927106e-05
1.661330665332666285e+03 2.547037003614453627e-05
1.662231115557778821e+03 2.529756339694059328e-05
1.663131565782891357e+03 2.512653663188422649e-05
1.664032016008003893e+03 2.495726495881446966e-05
1.664932466233116429e+03 2.478972403402413425e-05
1.665832916458228965e+03 2.462388994276434303e-05
1.666733366683341501e+03 2.445973918999569269e-05
1.667633816908454037e+03 2.429724869137587742e-05
1.668534267133566800e+03 2.413639576448049060e-05
1.669434717358679336e+03 2.397715812024695867e-05
1.670335167583791872e+03 2.381951385463528152e-05
1.671235617808904408e+03 2.366344144050060226e-05
1.672136068034016944e+03 2.350891971967023386e-05
1.673036518259129480e+03 2.335592789521878982e-05
1.673936968484242016e+03 2.320444552393651286e-05
1.674837418709354552e+03 2.305445250898427619e-05
1.675737868934467087e+03 2.290592909273086959e-05
1.676638319159579623e+03 2.275885584976616348e-05
1.677538769384692159e+03 2.261321368008538372e-05
1.678439219609804923e+03 2.246898380244078392e-05
1.679339669834917459e+03 2.232614774785362041e-05
1.680240120060029994e+03 2.218468735328419029e-05
1.681140570285142530e+03 2.204458475545381706e-05
1.682041020510255066e+03 2.190582238481556511e-05
1.682941470735367602e+03 2.176838295966878031e-05
1.683841920960480138e+03 2.163224948041392307e-05
1.684742371185592674e+03 2.149740522394373975e-05
1.685642821410705210e+03 2.136383373816604610e-05
1.686543271635817746e+03 2.123151883665651328e-05
1.687443721860930282e+03 2.110044459343584240e-05
1.688344172086043045e+03 2.097059533786929460e-05
1.689244622311155581e+03 2.084195564968416888e-05
1.690145072536268117e+03 2.071451035410312003e-05
1.691045522761380653e+03 2.058824451708913592e-05
1.691945972986493189e+03 2.046314344070073748e-05
1.692846423211605725e+03 2.033919265855187189e-05
1.693746873436718261e+03 2.021637793137663806e-05
1.694647323661830796e+03 2.009468524269384334e-05
1.695547773886943332e+03 1.997410079457040218e-05
1.696448224112055868e+03 1.985461100347898932e-05
1.697348674337168404e+03 1.973620249624989312e-05
1.698249124562281168e+03 1.961886210611237319e-05
1.699149574787393703e+03 1.950257686882519030e-05
1.700050025012506239e+03 1.938733401889214446e-05
1.700950475237618775e+03 1.927312098586140494e-05
1.701850925462731311e+03 1.915992539070679915e-05
1.702751375687843847e+03 1.904773504228870909e-05
1.703651825912956383e+03 1.893653793389108898e-05
1.704552276138068919e+03 1.882632223983560346e-05
1.705452726363181455e+03 1.871707631216797040e-05
1.706353176588293991e+03 1.860878867741695529e-05
1.707253626813406527e+03 1.850144803342223626e-05
1.708154077038519290e+03 1.839504324623170546e-05
1.709054527263631826e+03 1.828956334706382595e-05
1.709954977488744362e+03 1.818499752933592500e-05
1.710855427713856898e+03 1.808133514575433441e-05
1.711755877938969434e+03 1.797856570546825476e-05
1.712656328164081970e+03 1.787667887128145168e-05
1.713556778389194506e+03 1.777566445692375268e-05
1.714457228614307041e+03 1.767551242438005412e-05
1.715357678839419577e+03 1.757621288127407359e-05
1.716258129064532113e+03 1.747775607830788112e-05
1.717158579289644649e+03 1.738013240675322137e-05
1.718059029514757185e+03 1.728333239599594141e-05
1.718959479739869948e+03 1.718734671113011559e-05
1.719859929964982484e+03 1.709216615060214539e-05
1.720760380190095020e+03 1.699778164390310624e-05
1.721660830415207556e+03 1.690418424930760320e-05
1.722561280640320092e+03 1.681136515165958286e-05
1.723461730865432628e+03 1.671931566020208576e-05
1.724362181090545164e+03 1.662802720645173928e-05
1.725262631315657700e+03 1.653749134211515476e-05
1.726163081540770236e+03 1.644769973704813718e-05
1.727063531765882772e+03 1.635864417725486461e-05
1.727963981990995308e+03 1.627031656292783697e-05
1.728864432216108071e+03 1.618270890652575165e-05
1.729764882441220607e+03 1.609581333089089145e-05
1.730665332666333143e+03 1.600962206740217940e-05
1.731565782891445679e+03 1.592412745416599092e-05
1.732466233116558215e+03 1.583932193424145718e-05
1.733366683341670750e+03 1.575519805390116426e-05
1.734267133566783286e+03 1.567174846092573019e-05
1.735167583791895822e+03 1.558896590293113520e-05
1.736068034017008358e+03 1.550684322572890987e-05
1.736968484242120894e+03 1.542537337171807368e-05
1.737868934467233430e+03 1.534454937830776982e-05
1.738769384692346193e+03 1.526436437637041033e-05
1.739669834917458729e+03 1.518481158872447403e-05
1.740570285142571265e+03 1.510588432864617473e-05
1.741470735367683801e+03 1.502757599840969828e-05
1.742371185592796337e+03 1.494988008785492907e-05
1.743271635817908873e+03 1.487279017298240201e-05
1.744172086043021409e+03 1.479629991457472245e-05
1.745072536268133945e+03 1.472040305684418839e-05
1.745972986493246481e+03 1.464509342610529155e-05
1.746873436718359017e+03 1.457036492947259740e-05
1.747773886943471553e+03 1.449621155358252160e-05
1.748674337168584316e+03 1.442262736333915711e-05
1.749574787393696852e+03 1.434960650068320500e-05
1.750475237618809388e+03 1.427714318338368190e-05
1.751375687843921924e+03 1.420523170385203328e-05
1.752276138069034459e+03 1.413386642797772227e-05
1.753176588294146995e+03 1.406304179398589908e-05
1.754077038519259531e+03 1.399275231131495692e-05
1.754977488744372067e+03 1.392299255951535194e-05
1.755877938969484603e+03 1.385375718716816235e-05
1.756778389194597139e+03 1.378504091082302433e-05
1.757678839419709675e+03 1.371683851395576652e-05
1.758579289644822438e+03 1.364914484594443014e-05
1.759479739869934974e+03 1.358195482106390361e-05
1.760380190095047510e+03 1.351526341749820421e-05
1.761280640320160046e+03 1.344906567637132666e-05
1.762181090545272582e+03 1.338335670079395839e-05
1.763081540770385118e+03 1.331813165492873972e-05
1.763981990995497654e+03 1.325338576307076383e-05
1.764882441220610190e+03 1.318911430874494121e-05
1.765782891445722726e+03 1.312531263381957290e-05
1.766683341670835262e+03 1.306197613763468749e-05
1.767583791895947797e+03 1.299910027614639390e-05
1.768484242121060333e+03 1.293668056108580301e-05
1.769384692346173097e+03 1.287471255913285890e-05
1.770285142571285633e+03 1.281319189110437300e-05
1.771185592796398169e+03 1.275211423115606318e-05
1.772086043021510704e+03 1.269147530599896869e-05
1.772986493246623240e+03 1.263127089412837225e-05
1.773886943471735776e+03 1.257149682506702197e-05
1.774787393696848312e+03 1.251214897862071975e-05
1.775687843921960848e+03 1.245322328414683890e-05
1.776588294147073384e+03 1.239471571983540324e-05
1.777488744372185920e+03 1.233662231200225503e-05
1.778389194597298456e+03 1.227893913439431348e-05
1.779289644822411219e+03 1.222166230750667815e-05
1.780190095047523755e+03 1.216478799791111984e-05
1.781090545272636291e+03 1.210831241759594211e-05
1.781990995497748827e+03 1.205223182331701682e-05
1.782891445722861363e+03 1.199654251595971924e-05
1.783791895947973899e+03 1.194124083991122590e-05
1.784692346173086435e+03 1.188632318244373901e-05
1.785592796398198971e+03 1.183178597310770595e-05
1.786493246623311506e+03 1.177762568313506427e-05
1.787393696848424042e+03 1.172383882485255952e-05
1.788294147073536578e+03 1.167042195110463631e-05
1.789194597298649342e+03 1.161737165468578395e-05
1.790095047523761878e+03 1.156468456778241283e-05
1.790995497748874413e+03 1.151235736142350282e-05
1.791895947973986949e+03 1.146038674494078910e-05
1.792796398199099485e+03 1.140876946543719820e-05
1.793696848424212021e+03 1.135750230726422356e-05
1.794597298649324557e+03 1.130658209150771560e-05
1.795497748874437093e+03 1.125600567548205898e-05
1.796398199099549629e+03 1.120576995223255945e-05
1.797298649324662165e+03 1.115587185004542844e-05
1.798199099549774701e+03 1.110630833196626185e-05
1.799099549774887464e+03 1.105707639532584384e-05
1.800000000000000000e+03 1.100817307127361128e-05
